DATETIME,price
1991-03-15 23:00:00,1.666680932044983
1991-03-18 23:00:00,1.706363320350647
1991-03-19 23:00:00,1.666680932044983
1991-03-20 23:00:00,1.686521291732788
1991-03-21 23:00:00,1.7361259460449219
1991-03-22 23:00:00,1.7162846326828003
1991-03-25 23:00:00,1.7162846326828003
1991-03-26 23:00:00,1.686521291732788
1991-03-27 23:00:00,1.6369175910949707
1991-03-28 23:00:00,1.5972355604171753
1991-04-01 23:00:00,1.5575531721115112
1991-04-02 23:00:00,1.5079498291015625
1991-04-03 23:00:00,1.4682661294937134
1991-04-04 23:00:00,1.5277901887893677
1991-04-05 23:00:00,1.5773935317993164
1991-04-08 23:00:00,1.5476319789886475
1991-04-09 23:00:00,1.5476319789886475
1991-04-10 23:00:00,1.5217719078063965
1991-04-11 23:00:00,1.5317184925079346
1991-04-12 23:00:00,1.571502923965454
1991-04-15 23:00:00,1.6212338209152222
1991-04-16 23:00:00,1.6709659099578857
1991-04-17 23:00:00,1.6411267518997192
1991-04-18 23:00:00,1.6709659099578857
1991-04-19 23:00:00,1.6411267518997192
1991-04-22 23:00:00,1.5913954973220825
1991-04-23 23:00:00,1.5913954973220825
1991-04-24 23:00:00,1.5913954973220825
1991-04-25 23:00:00,1.571502923965454
1991-04-26 23:00:00,1.5516101121902466
1991-04-29 23:00:00,1.4919337034225464
1991-04-30 23:00:00,1.511825680732727
1991-05-01 23:00:00,1.541664719581604
1991-05-02 23:00:00,1.511825680732727
1991-05-03 23:00:00,1.5217719078063965
1991-05-06 23:00:00,1.5018788576126099
1991-05-07 23:00:00,1.4919337034225464
1991-05-08 23:00:00,1.5516101121902466
1991-05-09 23:00:00,1.571502923965454
1991-05-10 23:00:00,1.511825680732727
1991-05-13 23:00:00,1.4521485567092896
1991-05-14 23:00:00,1.4720404148101807
1991-05-15 23:00:00,1.5217719078063965
1991-05-16 23:00:00,1.541664719581604
1991-05-17 23:00:00,1.5317184925079346
1991-05-20 23:00:00,1.5317184925079346
1991-05-21 23:00:00,1.511825680732727
1991-05-22 23:00:00,1.5217719078063965
1991-05-23 23:00:00,1.5317184925079346
1991-05-24 23:00:00,1.5217719078063965
1991-05-28 23:00:00,1.5516101121902466
1991-05-29 23:00:00,1.5516101121902466
1991-05-30 23:00:00,1.5913954973220825
1991-05-31 23:00:00,1.6709659099578857
1991-06-03 23:00:00,1.6709659099578857
1991-06-04 23:00:00,1.6709659099578857
1991-06-05 23:00:00,1.6411267518997192
1991-06-06 23:00:00,1.6510733366012573
1991-06-07 23:00:00,1.6112881898880005
1991-06-10 23:00:00,1.6112881898880005
1991-06-11 23:00:00,1.5913954973220825
1991-06-12 23:00:00,1.5913954973220825
1991-06-13 23:00:00,1.5814485549926758
1991-06-14 23:00:00,1.571502923965454
1991-06-17 23:00:00,1.5615572929382324
1991-06-18 23:00:00,1.571502923965454
1991-06-19 23:00:00,1.5913954973220825
1991-06-20 23:00:00,1.511825680732727
1991-06-21 23:00:00,1.4919337034225464
1991-06-24 23:00:00,1.511825680732727
1991-06-25 23:00:00,1.5018788576126099
1991-06-26 23:00:00,1.4720404148101807
1991-06-27 23:00:00,1.4720404148101807
1991-06-28 23:00:00,1.432255744934082
1991-07-01 23:00:00,1.4024168252944946
1991-07-02 23:00:00,1.422309398651123
1991-07-03 23:00:00,1.432255744934082
1991-07-05 23:00:00,1.432255744934082
1991-07-08 23:00:00,1.462094783782959
1991-07-09 23:00:00,1.446136713027954
1991-07-10 23:00:00,1.4261900186538696
1991-07-11 23:00:00,1.4760571718215942
1991-07-12 23:00:00,1.466084361076355
1991-07-15 23:00:00,1.515950322151184
1991-07-16 23:00:00,1.5458707809448242
1991-07-17 23:00:00,1.6555778980255127
1991-07-18 23:00:00,1.705444574356079
1991-07-19 23:00:00,1.6755242347717285
1991-07-22 23:00:00,1.6555778980255127
1991-07-23 23:00:00,1.6456036567687988
1991-07-24 23:00:00,1.6456036567687988
1991-07-25 23:00:00,1.6356312036514282
1991-07-26 23:00:00,1.6555778980255127
1991-07-29 23:00:00,1.6655505895614624
1991-07-30 23:00:00,1.6755242347717285
1991-07-31 23:00:00,1.6156848669052124
1991-08-01 23:00:00,1.6356312036514282
1991-08-02 23:00:00,1.6256585121154785
1991-08-05 23:00:00,1.6356312036514282
1991-08-06 23:00:00,1.6555778980255127
1991-08-07 23:00:00,1.6755242347717285
1991-08-08 23:00:00,1.6854978799819946
1991-08-09 23:00:00,1.695471167564392
1991-08-12 23:00:00,1.695471167564392
1991-08-13 23:00:00,1.7154185771942139
1991-08-14 23:00:00,1.7553110122680664
1991-08-15 23:00:00,1.7553110122680664
1991-08-16 23:00:00,1.725391149520874
1991-08-19 23:00:00,1.6655505895614624
1991-08-20 23:00:00,1.6755242347717285
1991-08-21 23:00:00,1.6755242347717285
1991-08-22 23:00:00,1.6555778980255127
1991-08-23 23:00:00,1.7553110122680664
1991-08-26 23:00:00,1.7553110122680664
1991-08-27 23:00:00,1.795204520225525
1991-08-28 23:00:00,1.8749914169311523
1991-08-29 23:00:00,1.8849645853042603
1991-08-30 23:00:00,1.8650181293487549
1991-09-03 23:00:00,1.7752571105957031
1991-09-04 23:00:00,1.7652851343154907
1991-09-05 23:00:00,1.795204520225525
1991-09-06 23:00:00,1.8051774501800537
1991-09-09 23:00:00,1.8151509761810303
1991-09-10 23:00:00,1.8151509761810303
1991-09-11 23:00:00,1.8151509761810303
1991-09-12 23:00:00,1.8151509761810303
1991-09-13 23:00:00,1.8151509761810303
1991-09-16 23:00:00,1.8151509761810303
1991-09-17 23:00:00,1.8450722694396973
1991-09-18 23:00:00,1.8749914169311523
1991-09-19 23:00:00,1.9348310232162476
1991-09-20 23:00:00,1.9348310232162476
1991-09-23 23:00:00,1.894938588142395
1991-09-24 23:00:00,1.8350988626480103
1991-09-25 23:00:00,1.8350988626480103
1991-09-26 23:00:00,1.8849645853042603
1991-09-27 23:00:00,1.894938588142395
1991-09-30 23:00:00,1.9049116373062134
1991-10-01 23:00:00,1.825123906135559
1991-10-02 23:00:00,1.8550447225570679
1991-10-03 23:00:00,1.8450722694396973
1991-10-04 23:00:00,1.8450722694396973
1991-10-07 23:00:00,1.8749914169311523
1991-10-08 23:00:00,1.87898850440979
1991-10-09 23:00:00,1.8590002059936523
1991-10-10 23:00:00,1.8590002059936523
1991-10-11 23:00:00,1.8689947128295898
1991-10-14 23:00:00,1.8989776372909546
1991-10-15 23:00:00,1.928962230682373
1991-10-16 23:00:00,1.918967366218567
1991-10-17 23:00:00,1.9389569759368896
1991-10-18 23:00:00,1.918967366218567
1991-10-21 23:00:00,1.9089739322662354
1991-10-22 23:00:00,1.839011311531067
1991-10-23 23:00:00,1.8490058183670044
1991-10-24 23:00:00,1.8190217018127441
1991-10-25 23:00:00,1.7690486907958984
1991-10-28 23:00:00,1.8190217018127441
1991-10-29 23:00:00,1.7690486907958984
1991-10-30 23:00:00,1.7890377044677734
1991-10-31 23:00:00,1.8190217018127441
1991-11-01 23:00:00,1.87898850440979
1991-11-04 23:00:00,1.9389569759368896
1991-11-05 23:00:00,1.9889297485351562
1991-11-06 23:00:00,1.9389569759368896
1991-11-07 23:00:00,1.9389569759368896
1991-11-08 23:00:00,1.958946704864502
1991-11-11 23:00:00,1.9389569759368896
1991-11-12 23:00:00,1.9389569759368896
1991-11-13 23:00:00,1.998925805091858
1991-11-14 23:00:00,1.9389569759368896
1991-11-15 23:00:00,1.87898850440979
1991-11-18 23:00:00,1.839011311531067
1991-11-19 23:00:00,1.7990323305130005
1991-11-20 23:00:00,1.7790417671203613
1991-11-21 23:00:00,1.7890377044677734
1991-11-22 23:00:00,1.7590540647506714
1991-11-25 23:00:00,1.7690486907958984
1991-11-26 23:00:00,1.6790963411331177
1991-11-27 23:00:00,1.6790963411331177
1991-11-29 23:00:00,1.6990857124328613
1991-12-02 23:00:00,1.6591078042984009
1991-12-03 23:00:00,1.6990857124328613
1991-12-04 23:00:00,1.6790963411331177
1991-12-05 23:00:00,1.6890913248062134
1991-12-06 23:00:00,1.6890913248062134
1991-12-09 23:00:00,1.6591078042984009
1991-12-10 23:00:00,1.5991405248641968
1991-12-11 23:00:00,1.6291242837905884
1991-12-12 23:00:00,1.6191295385360718
1991-12-13 23:00:00,1.5991405248641968
1991-12-16 23:00:00,1.6091349124908447
1991-12-17 23:00:00,1.6191295385360718
1991-12-18 23:00:00,1.649112582206726
1991-12-19 23:00:00,1.6291242837905884
1991-12-20 23:00:00,1.6091349124908447
1991-12-23 23:00:00,1.5491667985916138
1991-12-24 23:00:00,1.6091349124908447
1991-12-26 23:00:00,1.5991405248641968
1991-12-27 23:00:00,1.5791507959365845
1991-12-30 23:00:00,1.5591613054275513
1991-12-31 23:00:00,1.5591613054275513
1992-01-02 23:00:00,1.5291773080825806
1992-01-03 23:00:00,1.5191831588745117
1992-01-06 23:00:00,1.489199161529541
1992-01-07 23:00:00,1.369262933731079
1992-01-08 23:00:00,1.3592689037322998
1992-01-09 23:00:00,1.389252781867981
1992-01-10 23:00:00,1.4292314052581787
1992-01-13 23:00:00,1.469209909439087
1992-01-14 23:00:00,1.4192373752593994
1992-01-15 23:00:00,1.4592151641845703
1992-01-16 23:00:00,1.489199161529541
1992-01-17 23:00:00,1.5491667985916138
1992-01-20 23:00:00,1.6091349124908447
1992-01-21 23:00:00,1.6091349124908447
1992-01-22 23:00:00,1.5891458988189697
1992-01-23 23:00:00,1.5691559314727783
1992-01-24 23:00:00,1.4792044162750244
1992-01-27 23:00:00,1.4492205381393433
1992-01-28 23:00:00,1.3992478847503662
1992-01-29 23:00:00,1.4092423915863037
1992-01-30 23:00:00,1.3992478847503662
1992-01-31 23:00:00,1.4392255544662476
1992-02-03 23:00:00,1.4292314052581787
1992-02-04 23:00:00,1.4092423915863037
1992-02-05 23:00:00,1.389252781867981
1992-02-06 23:00:00,1.3392796516418457
1992-02-07 23:00:00,1.4192373752593994
1992-02-10 23:00:00,1.489199161529541
1992-02-11 23:00:00,1.4792044162750244
1992-02-12 23:00:00,1.4792044162750244
1992-02-13 23:00:00,1.469209909439087
1992-02-14 23:00:00,1.489199161529541
1992-02-18 23:00:00,1.469209909439087
1992-02-19 23:00:00,1.4492205381393433
1992-02-20 23:00:00,1.469209909439087
1992-02-21 23:00:00,1.4792044162750244
1992-02-24 23:00:00,1.4792044162750244
1992-02-25 23:00:00,1.4592151641845703
1992-02-26 23:00:00,1.4492205381393433
1992-02-27 23:00:00,1.4492205381393433
1992-02-28 23:00:00,1.4292314052581787
1992-03-02 23:00:00,1.4392255544662476
1992-03-03 23:00:00,1.4392255544662476
1992-03-04 23:00:00,1.4392255544662476
1992-03-05 23:00:00,1.4592151641845703
1992-03-06 23:00:00,1.4592151641845703
1992-03-09 23:00:00,1.489199161529541
1992-03-10 23:00:00,1.5291773080825806
1992-03-11 23:00:00,1.5391722917556763
1992-03-12 23:00:00,1.5391722917556763
1992-03-13 23:00:00,1.5791507959365845
1992-03-16 23:00:00,1.5391722917556763
1992-03-17 23:00:00,1.5591613054275513
1992-03-18 23:00:00,1.5391722917556763
1992-03-19 23:00:00,1.5391722917556763
1992-03-20 23:00:00,1.5791507959365845
1992-03-23 23:00:00,1.5991405248641968
1992-03-24 23:00:00,1.6391195058822632
1992-03-25 23:00:00,1.649112582206726
1992-03-26 23:00:00,1.7190756797790527
1992-03-27 23:00:00,1.6790963411331177
1992-03-30 23:00:00,1.6790963411331177
1992-03-31 23:00:00,1.6990857124328613
1992-04-01 23:00:00,1.6691025495529175
1992-04-02 23:00:00,1.6591078042984009
1992-04-03 23:00:00,1.6391195058822632
1992-04-06 23:00:00,1.7490595579147339
1992-04-07 23:00:00,1.7190756797790527
1992-04-08 23:00:00,1.6790963411331177
1992-04-09 23:00:00,1.7632514238357544
1992-04-10 23:00:00,1.753234624862671
1992-04-13 23:00:00,1.7732714414596558
1992-04-14 23:00:00,1.803325891494751
1992-04-15 23:00:00,1.813344120979309
1992-04-16 23:00:00,1.803325891494751
1992-04-20 23:00:00,1.8534187078475952
1992-04-21 23:00:00,1.8634369373321533
1992-04-22 23:00:00,1.8434005975723267
1992-04-23 23:00:00,1.8434005975723267
1992-04-24 23:00:00,1.923546552658081
1992-04-27 23:00:00,1.9536019563674927
1992-04-28 23:00:00,1.9435842037200928
1992-04-29 23:00:00,1.9435842037200928
1992-04-30 23:00:00,1.9536019563674927
1992-05-01 23:00:00,1.9536019563674927
1992-05-04 23:00:00,1.9636224508285522
1992-05-05 23:00:00,1.9736394882202148
1992-05-06 23:00:00,1.933566689491272
1992-05-07 23:00:00,1.9035098552703857
1992-05-08 23:00:00,1.8934928178787231
1992-05-11 23:00:00,1.8634369373321533
1992-05-12 23:00:00,1.7933086156845093
1992-05-13 23:00:00,1.7732714414596558
1992-05-14 23:00:00,1.8233641386032104
1992-05-15 23:00:00,1.8534187078475952
1992-05-18 23:00:00,1.923546552658081
1992-05-19 23:00:00,1.9536019563674927
1992-05-20 23:00:00,1.9836596250534058
1992-05-21 23:00:00,1.9836596250534058
1992-05-22 23:00:00,2.0137133598327637
1992-05-26 23:00:00,2.043769598007202
1992-05-27 23:00:00,2.003695487976074
1992-05-28 23:00:00,2.003695487976074
1992-05-29 23:00:00,1.9836596250534058
1992-06-01 23:00:00,2.033750057220459
1992-06-02 23:00:00,2.0137133598327637
1992-06-03 23:00:00,2.0237326622009277
1992-06-04 23:00:00,2.0137133598327637
1992-06-05 23:00:00,2.043769598007202
1992-06-08 23:00:00,2.1239173412323
1992-06-09 23:00:00,2.1239173412323
1992-06-10 23:00:00,2.1038808822631836
1992-06-11 23:00:00,2.184028148651123
1992-06-12 23:00:00,2.1439552307128906
1992-06-15 23:00:00,2.1239173412323
1992-06-16 23:00:00,2.113898754119873
1992-06-17 23:00:00,2.073824405670166
1992-06-18 23:00:00,2.073824405670166
1992-06-19 23:00:00,2.073824405670166
1992-06-22 23:00:00,2.053788185119629
1992-06-23 23:00:00,2.053788185119629
1992-06-24 23:00:00,2.0638062953948975
1992-06-25 23:00:00,2.003695487976074
1992-06-26 23:00:00,2.0137133598327637
1992-06-29 23:00:00,2.033750057220459
1992-06-30 23:00:00,2.043769598007202
1992-07-01 23:00:00,2.08384370803833
1992-07-02 23:00:00,2.1038808822631836
1992-07-06 23:00:00,2.1239173412323
1992-07-07 23:00:00,2.13393497467041
1992-07-08 23:00:00,2.13393497467041
1992-07-09 23:00:00,2.158025026321411
1992-07-10 23:00:00,2.1379501819610596
1992-07-13 23:00:00,2.158025026321411
1992-07-14 23:00:00,2.29854679107666
1992-07-15 23:00:00,2.26843523979187
1992-07-16 23:00:00,2.198174238204956
1992-07-17 23:00:00,2.20821213722229
1992-07-20 23:00:00,2.178100347518921
1992-07-21 23:00:00,2.1881370544433594
1992-07-22 23:00:00,2.2383244037628174
1992-07-23 23:00:00,2.248361825942993
1992-07-24 23:00:00,2.3186230659484863
1992-07-27 23:00:00,2.3085856437683105
1992-07-28 23:00:00,2.288511276245117
1992-07-29 23:00:00,2.29854679107666
1992-07-30 23:00:00,2.3386971950531006
1992-07-31 23:00:00,2.3386971950531006
1992-08-03 23:00:00,2.3788466453552246
1992-08-04 23:00:00,2.3888840675354004
1992-08-05 23:00:00,2.1881370544433594
1992-08-06 23:00:00,2.0877633094787598
1992-08-07 23:00:00,2.2583975791931152
1992-08-10 23:00:00,2.278472900390625
1992-08-11 23:00:00,2.278472900390625
1992-08-12 23:00:00,2.3085856437683105
1992-08-13 23:00:00,2.398921489715576
1992-08-14 23:00:00,2.4089584350585938
1992-08-17 23:00:00,2.368809461593628
1992-08-18 23:00:00,2.3085856437683105
1992-08-19 23:00:00,2.288511276245117
1992-08-20 23:00:00,2.3085856437683105
1992-08-21 23:00:00,2.3085856437683105
1992-08-24 23:00:00,2.29854679107666
1992-08-25 23:00:00,2.3587722778320312
1992-08-26 23:00:00,2.4089584350585938
1992-08-27 23:00:00,2.4290332794189453
1992-08-28 23:00:00,2.5294058322906494
1992-08-31 23:00:00,2.4892587661743164
1992-09-01 23:00:00,2.5093328952789307
1992-09-02 23:00:00,2.4992947578430176
1992-09-03 23:00:00,2.5193686485290527
1992-09-04 23:00:00,2.5394434928894043
1992-09-08 23:00:00,2.6197431087493896
1992-09-09 23:00:00,2.629779100418091
1992-09-10 23:00:00,2.6197431087493896
1992-09-11 23:00:00,2.6398181915283203
1992-09-14 23:00:00,2.6498544216156006
1992-09-15 23:00:00,2.6398181915283203
1992-09-16 23:00:00,2.6498544216156006
1992-09-17 23:00:00,2.7100796699523926
1992-09-18 23:00:00,2.770301342010498
1992-09-21 23:00:00,2.7903761863708496
1992-09-22 23:00:00,2.8004138469696045
1992-09-23 23:00:00,2.8104522228240967
1992-09-24 23:00:00,2.870675563812256
1992-09-25 23:00:00,2.7301533222198486
1992-09-28 23:00:00,2.6498544216156006
1992-09-29 23:00:00,2.720115900039673
1992-09-30 23:00:00,2.669928550720215
1992-10-01 23:00:00,2.5896313190460205
1992-10-02 23:00:00,2.5996668338775635
1992-10-05 23:00:00,2.5494799613952637
1992-10-06 23:00:00,2.5294058322906494
1992-10-07 23:00:00,2.559518814086914
1992-10-08 23:00:00,2.5735933780670166
1992-10-09 23:00:00,2.5333802700042725
1992-10-12 23:00:00,2.5434322357177734
1992-10-13 23:00:00,2.5333802700042725
1992-10-14 23:00:00,2.5333802700042725
1992-10-15 23:00:00,2.5132744312286377
1992-10-16 23:00:00,2.613804817199707
1992-10-19 23:00:00,2.7545478343963623
1992-10-20 23:00:00,2.71433687210083
1992-10-21 23:00:00,2.674124002456665
1992-10-22 23:00:00,2.5434322357177734
1992-10-23 23:00:00,2.5434322357177734
1992-10-26 23:00:00,2.5735933780670166
1992-10-27 23:00:00,2.4831154346466064
1992-10-28 23:00:00,2.463007688522339
1992-10-29 23:00:00,2.47306227684021
1992-10-30 23:00:00,2.452955484390259
1992-11-02 23:00:00,2.493169069290161
1992-11-03 23:00:00,2.412743330001831
1992-11-04 23:00:00,2.3524253368377686
1992-11-05 23:00:00,2.241840124130249
1992-11-06 23:00:00,2.3524253368377686
1992-11-09 23:00:00,2.2820522785186768
1992-11-10 23:00:00,2.332319498062134
1992-11-11 23:00:00,2.2921061515808105
1992-11-12 23:00:00,2.3021581172943115
1992-11-13 23:00:00,2.332319498062134
1992-11-16 23:00:00,2.3524253368377686
1992-11-17 23:00:00,2.332319498062134
1992-11-18 23:00:00,2.342371702194214
1992-11-19 23:00:00,2.251894474029541
1992-11-20 23:00:00,2.3122129440307617
1992-11-23 23:00:00,2.332319498062134
1992-11-24 23:00:00,2.3122129440307617
1992-11-25 23:00:00,2.3122129440307617
1992-11-27 23:00:00,2.332319498062134
1992-11-30 23:00:00,2.2820522785186768
1992-12-01 23:00:00,2.2719993591308594
1992-12-02 23:00:00,2.3021581172943115
1992-12-03 23:00:00,2.2116811275482178
1992-12-04 23:00:00,2.251894474029541
1992-12-07 23:00:00,2.251894474029541
1992-12-08 23:00:00,2.241840124130249
1992-12-09 23:00:00,2.2719993591308594
1992-12-10 23:00:00,2.322265386581421
1992-12-11 23:00:00,2.362478256225586
1992-12-14 23:00:00,2.3524253368377686
1992-12-15 23:00:00,2.332319498062134
1992-12-16 23:00:00,2.3122129440307617
1992-12-17 23:00:00,2.2921061515808105
1992-12-18 23:00:00,2.3122129440307617
1992-12-21 23:00:00,2.2820522785186768
1992-12-22 23:00:00,2.2820522785186768
1992-12-23 23:00:00,2.2619454860687256
1992-12-24 23:00:00,2.3122129440307617
1992-12-28 23:00:00,2.2820522785186768
1992-12-29 23:00:00,2.2921061515808105
1992-12-30 23:00:00,2.2820522785186768
1992-12-31 23:00:00,2.362478256225586
1993-01-04 23:00:00,2.322265386581421
1993-01-05 23:00:00,2.372530698776245
1993-01-06 23:00:00,2.322265386581421
1993-01-07 23:00:00,2.3021581172943115
1993-01-08 23:00:00,2.23178768157959
1993-01-11 23:00:00,2.186248779296875
1993-01-12 23:00:00,2.196323871612549
1993-01-13 23:00:00,2.2366232872009277
1993-01-14 23:00:00,2.1560251712799072
1993-01-15 23:00:00,2.186248779296875
1993-01-18 23:00:00,2.176173686981201
1993-01-19 23:00:00,2.2265491485595703
1993-01-20 23:00:00,2.2366232872009277
1993-01-21 23:00:00,2.2567741870880127
1993-01-22 23:00:00,2.317223310470581
1993-01-25 23:00:00,2.377671480178833
1993-01-26 23:00:00,2.4381215572357178
1993-01-27 23:00:00,2.41797137260437
1993-01-28 23:00:00,2.5187206268310547
1993-01-29 23:00:00,2.559019088745117
1993-02-01 23:00:00,2.6194679737091064
1993-02-02 23:00:00,2.6396186351776123
1993-02-03 23:00:00,2.7705917358398438
1993-02-04 23:00:00,2.861266613006592
1993-02-05 23:00:00,2.9015653133392334
1993-02-08 23:00:00,2.9015653133392334
1993-02-09 23:00:00,2.851191759109497
1993-02-10 23:00:00,2.820967674255371
1993-02-11 23:00:00,2.891488552093506
1993-02-12 23:00:00,2.891488552093506
1993-02-16 23:00:00,2.8008170127868652
1993-02-17 23:00:00,2.8310413360595703
1993-02-18 23:00:00,2.861266613006592
1993-02-19 23:00:00,2.9015653133392334
1993-02-22 23:00:00,2.941864252090454
1993-02-23 23:00:00,2.931790828704834
1993-02-24 23:00:00,2.891488552093506
1993-02-25 23:00:00,2.8108909130096436
1993-02-26 23:00:00,2.841116428375244
1993-03-01 23:00:00,2.861266613006592
1993-03-02 23:00:00,2.8713412284851074
1993-03-03 23:00:00,3.0829129219055176
1993-03-04 23:00:00,3.0526890754699707
1993-03-05 23:00:00,3.022463321685791
1993-03-08 23:00:00,3.0829129219055176
1993-03-09 23:00:00,3.0829129219055176
1993-03-10 23:00:00,3.1030642986297607
1993-03-11 23:00:00,3.1534371376037598
1993-03-12 23:00:00,3.123213529586792
1993-03-15 23:00:00,3.1433606147766113
1993-03-16 23:00:00,3.133287191390991
1993-03-17 23:00:00,3.2138869762420654
1993-03-18 23:00:00,3.2239630222320557
1993-03-19 23:00:00,3.2038140296936035
1993-03-22 23:00:00,3.2138869762420654
1993-03-23 23:00:00,3.2038140296936035
1993-03-24 23:00:00,3.2038140296936035
1993-03-25 23:00:00,3.123213529586792
1993-03-26 23:00:00,3.1635138988494873
1993-03-29 23:00:00,3.2138869762420654
1993-03-30 23:00:00,3.2441110610961914
1993-03-31 23:00:00,3.234036445617676
1993-04-01 23:00:00,3.2239630222320557
1993-04-02 23:00:00,3.1534371376037598
1993-04-05 23:00:00,3.1635138988494873
1993-04-06 23:00:00,3.1433606147766113
1993-04-07 23:00:00,3.1433606147766113
1993-04-08 23:00:00,3.1482057571411133
1993-04-12 23:00:00,3.208747148513794
1993-04-13 23:00:00,3.1482057571411133
1993-04-14 23:00:00,3.1280267238616943
1993-04-15 23:00:00,3.1078438758850098
1993-04-16 23:00:00,3.1280267238616943
1993-04-19 23:00:00,3.1482057571411133
1993-04-20 23:00:00,3.218838691711426
1993-04-21 23:00:00,3.1482057571411133
1993-04-22 23:00:00,3.017030715942383
1993-04-23 23:00:00,2.9060370922088623
1993-04-26 23:00:00,2.98675799369812
1993-04-27 23:00:00,2.996849298477173
1993-04-28 23:00:00,2.996849298477173
1993-04-29 23:00:00,3.0674829483032227
1993-04-30 23:00:00,3.1784770488739014
1993-05-03 23:00:00,3.198655605316162
1993-05-04 23:00:00,3.1784770488739014
1993-05-05 23:00:00,3.1784770488739014
1993-05-06 23:00:00,3.1885688304901123
1993-05-07 23:00:00,3.1784770488739014
1993-05-10 23:00:00,3.1078438758850098
1993-05-11 23:00:00,3.1885688304901123
1993-05-12 23:00:00,3.198655605316162
1993-05-13 23:00:00,3.2692902088165283
1993-05-14 23:00:00,3.33992338180542
1993-05-17 23:00:00,3.3601038455963135
1993-05-18 23:00:00,3.4206457138061523
1993-05-19 23:00:00,3.380284070968628
1993-05-20 23:00:00,3.380284070968628
1993-05-21 23:00:00,3.3701934814453125
1993-05-24 23:00:00,3.380284070968628
1993-05-25 23:00:00,3.3500144481658936
1993-05-26 23:00:00,3.3601038455963135
1993-05-27 23:00:00,3.4307384490966797
1993-05-28 23:00:00,3.4307384490966797
1993-06-01 23:00:00,3.4912779331207275
1993-06-02 23:00:00,3.59218430519104
1993-06-03 23:00:00,3.5619120597839355
1993-06-04 23:00:00,3.5518229007720947
1993-06-07 23:00:00,3.5518229007720947
1993-06-08 23:00:00,3.511460304260254
1993-06-09 23:00:00,3.5518229007720947
1993-06-10 23:00:00,3.511460304260254
1993-06-11 23:00:00,3.380284070968628
1993-06-14 23:00:00,3.3096516132354736
1993-06-15 23:00:00,3.3096516132354736
1993-06-16 23:00:00,3.3601038455963135
1993-06-17 23:00:00,3.3903751373291016
1993-06-18 23:00:00,3.4004650115966797
1993-06-21 23:00:00,3.4509172439575195
1993-06-22 23:00:00,3.4004650115966797
1993-06-23 23:00:00,3.4206457138061523
1993-06-24 23:00:00,3.3096516132354736
1993-06-25 23:00:00,3.3096516132354736
1993-06-28 23:00:00,3.3197429180145264
1993-06-29 23:00:00,3.259202003479004
1993-06-30 23:00:00,3.289470911026001
1993-07-01 23:00:00,3.259202003479004
1993-07-02 23:00:00,3.259202003479004
1993-07-06 23:00:00,3.2289295196533203
1993-07-07 23:00:00,3.2793819904327393
1993-07-08 23:00:00,3.3500144481658936
1993-07-09 23:00:00,3.3952863216400146
1993-07-12 23:00:00,3.4357051849365234
1993-07-13 23:00:00,3.415494680404663
1993-07-14 23:00:00,3.415494680404663
1993-07-15 23:00:00,3.3952863216400146
1993-07-16 23:00:00,3.3952863216400146
1993-07-19 23:00:00,3.415494680404663
1993-07-20 23:00:00,3.4357051849365234
1993-07-21 23:00:00,3.4357051849365234
1993-07-22 23:00:00,3.425598621368408
1993-07-23 23:00:00,3.4357051849365234
1993-07-26 23:00:00,3.425598621368408
1993-07-27 23:00:00,3.3952863216400146
1993-07-28 23:00:00,3.4053902626037598
1993-07-29 23:00:00,3.425598621368408
1993-07-30 23:00:00,3.445810317993164
1993-08-02 23:00:00,3.536754608154297
1993-08-03 23:00:00,3.5973849296569824
1993-08-04 23:00:00,3.6378047466278076
1993-08-05 23:00:00,3.6378047466278076
1993-08-06 23:00:00,3.6175947189331055
1993-08-09 23:00:00,3.6782243251800537
1993-08-10 23:00:00,3.71864652633667
1993-08-11 23:00:00,3.880324363708496
1993-08-12 23:00:00,3.8904294967651367
1993-08-13 23:00:00,3.8399031162261963
1993-08-16 23:00:00,3.8702192306518555
1993-08-17 23:00:00,4.042004585266113
1993-08-18 23:00:00,4.15316104888916
1993-08-19 23:00:00,4.082424640655518
1993-08-20 23:00:00,4.173370838165283
1993-08-23 23:00:00,4.335048198699951
1993-08-24 23:00:00,4.244105339050293
1993-08-25 23:00:00,4.173370838165283
1993-08-26 23:00:00,4.072319984436035
1993-08-27 23:00:00,3.96116304397583
1993-08-30 23:00:00,4.021795272827148
1993-08-31 23:00:00,4.062216758728027
1993-09-01 23:00:00,4.122848033905029
1993-09-02 23:00:00,4.062216758728027
1993-09-03 23:00:00,4.072319984436035
1993-09-07 23:00:00,3.96116304397583
1993-09-08 23:00:00,3.8500113487243652
1993-09-09 23:00:00,3.8601160049438477
1993-09-10 23:00:00,3.8702192306518555
1993-09-13 23:00:00,3.829798698425293
1993-09-14 23:00:00,3.8399031162261963
1993-09-15 23:00:00,3.880324363708496
1993-09-16 23:00:00,3.880324363708496
1993-09-17 23:00:00,3.8399031162261963
1993-09-20 23:00:00,3.8601160049438477
1993-09-21 23:00:00,3.8904294967651367
1993-09-22 23:00:00,3.8601160049438477
1993-09-23 23:00:00,3.8702192306518555
1993-09-24 23:00:00,3.8601160049438477
1993-09-27 23:00:00,3.8702192306518555
1993-09-28 23:00:00,3.8399031162261963
1993-09-29 23:00:00,4.173370838165283
1993-09-30 23:00:00,4.284524440765381
1993-10-01 23:00:00,4.34515380859375
1993-10-04 23:00:00,4.2946319580078125
1993-10-05 23:00:00,4.254210472106934
1993-10-06 23:00:00,4.22389554977417
1993-10-07 23:00:00,4.193583965301514
1993-10-08 23:00:00,4.157971382141113
1993-10-11 23:00:00,4.046686172485352
1993-10-12 23:00:00,3.9657537937164307
1993-10-13 23:00:00,3.8747003078460693
1993-10-14 23:00:00,3.9050538539886475
1993-10-15 23:00:00,3.803887128829956
1993-10-18 23:00:00,3.722952127456665
1993-10-19 23:00:00,3.773533582687378
1993-10-20 23:00:00,3.439683675765991
1993-10-21 23:00:00,3.5610837936401367
1993-10-22 23:00:00,3.4801502227783203
1993-10-25 23:00:00,3.419450283050537
1993-10-26 23:00:00,3.257581949234009
1993-10-27 23:00:00,3.3587489128112793
1993-10-28 23:00:00,3.530734062194824
1993-10-29 23:00:00,3.45991587638855
1993-11-01 23:00:00,3.530734062194824
1993-11-02 23:00:00,3.601551055908203
1993-11-03 23:00:00,3.6420176029205322
1993-11-04 23:00:00,3.6420176029205322
1993-11-05 23:00:00,3.601551055908203
1993-11-08 23:00:00,3.5408506393432617
1993-11-09 23:00:00,3.378983497619629
1993-11-10 23:00:00,3.409334182739258
1993-11-11 23:00:00,3.378983497619629
1993-11-12 23:00:00,3.3688645362854004
1993-11-15 23:00:00,3.3283989429473877
1993-11-16 23:00:00,3.196880578994751
1993-11-17 23:00:00,3.3688645362854004
1993-11-18 23:00:00,3.4295663833618164
1993-11-19 23:00:00,3.409334182739258
1993-11-22 23:00:00,3.2879323959350586
1993-11-23 23:00:00,3.298048257827759
1993-11-24 23:00:00,3.338517189025879
1993-11-26 23:00:00,3.257581949234009
1993-11-29 23:00:00,3.126063823699951
1993-11-30 23:00:00,3.126063823699951
1993-12-01 23:00:00,3.1462981700897217
1993-12-02 23:00:00,3.1462981700897217
1993-12-03 23:00:00,3.156414747238159
1993-12-06 23:00:00,3.166531562805176
1993-12-07 23:00:00,3.1766483783721924
1993-12-08 23:00:00,3.1462981700897217
1993-12-09 23:00:00,3.095715045928955
1993-12-10 23:00:00,3.126063823699951
1993-12-13 23:00:00,3.085599184036255
1993-12-14 23:00:00,3.115947723388672
1993-12-15 23:00:00,3.065366506576538
1993-12-16 23:00:00,3.095715045928955
1993-12-17 23:00:00,3.0754806995391846
1993-12-20 23:00:00,2.9237303733825684
1993-12-21 23:00:00,2.8731462955474854
1993-12-22 23:00:00,3.065366506576538
1993-12-23 23:00:00,3.0754806995391846
1993-12-27 23:00:00,3.1462981700897217
1993-12-28 23:00:00,3.115947723388672
1993-12-29 23:00:00,3.1462981700897217
1993-12-30 23:00:00,3.1462981700897217
1993-12-31 23:00:00,3.156414747238159
1994-01-03 23:00:00,3.156414747238159
1994-01-04 23:00:00,3.166531562805176
1994-01-05 23:00:00,3.3688645362854004
1994-01-06 23:00:00,3.530734062194824
1994-01-07 23:00:00,3.520615339279175
1994-01-10 23:00:00,3.657176971435547
1994-01-11 23:00:00,3.566002607345581
1994-01-12 23:00:00,3.505218267440796
1994-01-13 23:00:00,3.444434404373169
1994-01-14 23:00:00,3.343127965927124
1994-01-17 23:00:00,3.434303045272827
1994-01-18 23:00:00,3.5254781246185303
1994-01-19 23:00:00,3.5761325359344482
1994-01-20 23:00:00,3.4748268127441406
1994-01-21 23:00:00,3.484956741333008
1994-01-24 23:00:00,3.444434404373169
1994-01-25 23:00:00,3.444434404373169
1994-01-26 23:00:00,3.484956741333008
1994-01-27 23:00:00,3.5963945388793945
1994-01-28 23:00:00,3.566002607345581
1994-01-31 23:00:00,3.5761325359344482
1994-02-01 23:00:00,3.636915683746338
1994-02-02 23:00:00,3.7382242679595947
1994-02-03 23:00:00,3.7280943393707275
1994-02-04 23:00:00,3.707829713821411
1994-02-07 23:00:00,3.647048234939575
1994-02-08 23:00:00,3.7179627418518066
1994-02-09 23:00:00,3.6673107147216797
1994-02-10 23:00:00,3.566002607345581
1994-02-11 23:00:00,3.6875698566436768
1994-02-14 23:00:00,3.566002607345581
1994-02-15 23:00:00,3.566002607345581
1994-02-16 23:00:00,3.484956741333008
1994-02-17 23:00:00,3.4646942615509033
1994-02-18 23:00:00,3.4646942615509033
1994-02-22 23:00:00,3.484956741333008
1994-02-23 23:00:00,3.515348434448242
1994-02-24 23:00:00,3.5254781246185303
1994-02-25 23:00:00,3.545741558074951
1994-02-28 23:00:00,3.484956741333008
1994-03-01 23:00:00,3.484956741333008
1994-03-02 23:00:00,3.444434404373169
1994-03-03 23:00:00,3.444434404373169
1994-03-04 23:00:00,3.495088577270508
1994-03-07 23:00:00,3.4646942615509033
1994-03-08 23:00:00,3.3937792778015137
1994-03-09 23:00:00,3.262082099914551
1994-03-10 23:00:00,3.2012975215911865
1994-03-11 23:00:00,3.2519514560699463
1994-03-14 23:00:00,3.3532581329345703
1994-03-15 23:00:00,3.4241726398468018
1994-03-16 23:00:00,3.4241726398468018
1994-03-17 23:00:00,3.5558719635009766
1994-03-18 23:00:00,3.6875698566436768
1994-03-21 23:00:00,3.707829713821411
1994-03-22 23:00:00,3.7584853172302246
1994-03-23 23:00:00,3.677441358566284
1994-03-24 23:00:00,3.647048234939575
1994-03-25 23:00:00,3.647048234939575
1994-03-28 23:00:00,3.5254781246185303
1994-03-29 23:00:00,3.403913974761963
1994-03-30 23:00:00,3.444434404373169
1994-03-31 23:00:00,3.4646942615509033
1994-04-04 23:00:00,3.414043664932251
1994-04-05 23:00:00,3.403913974761963
1994-04-06 23:00:00,3.484956741333008
1994-04-07 23:00:00,3.4646942615509033
1994-04-08 23:00:00,3.4646942615509033
1994-04-11 23:00:00,3.439131021499634
1994-04-12 23:00:00,3.489856481552124
1994-04-13 23:00:00,3.53043532371521
1994-04-14 23:00:00,3.591303586959839
1994-04-15 23:00:00,3.8144960403442383
1994-04-18 23:00:00,3.763767719268799
1994-04-19 23:00:00,3.723186492919922
1994-04-20 23:00:00,3.713046073913574
1994-04-21 23:00:00,3.733334541320801
1994-04-22 23:00:00,3.743478536605835
1994-04-25 23:00:00,3.8550727367401123
1994-04-26 23:00:00,3.875361442565918
1994-04-28 23:00:00,3.865217924118042
1994-04-29 23:00:00,3.8550727367401123
1994-05-02 23:00:00,3.865217924118042
1994-05-03 23:00:00,3.8144960403442383
1994-05-04 23:00:00,3.8550727367401123
1994-05-05 23:00:00,3.844928503036499
1994-05-06 23:00:00,3.9565234184265137
1994-05-09 23:00:00,3.946376323699951
1994-05-10 23:00:00,3.9565234184265137
1994-05-11 23:00:00,3.915940999984741
1994-05-12 23:00:00,3.9869587421417236
1994-05-13 23:00:00,3.9768106937408447
1994-05-16 23:00:00,3.9666671752929688
1994-05-17 23:00:00,3.865217924118042
1994-05-18 23:00:00,3.875361442565918
1994-05-19 23:00:00,3.8246371746063232
1994-05-20 23:00:00,3.784055471420288
1994-05-23 23:00:00,3.743478536605835
1994-05-24 23:00:00,3.7028982639312744
1994-05-25 23:00:00,3.6724629402160645
1994-05-26 23:00:00,3.601450204849243
1994-05-27 23:00:00,3.621739149093628
1994-05-31 23:00:00,3.571014404296875
1994-06-01 23:00:00,3.581160306930542
1994-06-02 23:00:00,3.5507233142852783
1994-06-03 23:00:00,3.520289182662964
1994-06-06 23:00:00,3.5507233142852783
1994-06-07 23:00:00,3.6115920543670654
1994-06-08 23:00:00,3.5507233142852783
1994-06-09 23:00:00,3.489856481552124
1994-06-10 23:00:00,3.621739149093628
1994-06-13 23:00:00,3.6927523612976074
1994-06-14 23:00:00,3.733334541320801
1994-06-15 23:00:00,3.723186492919922
1994-06-16 23:00:00,3.753622055053711
1994-06-17 23:00:00,3.8347830772399902
1994-06-20 23:00:00,3.7942023277282715
1994-06-21 23:00:00,3.8347830772399902
1994-06-22 23:00:00,3.8347830772399902
1994-06-23 23:00:00,3.733334541320801
1994-06-24 23:00:00,3.713046073913574
1994-06-27 23:00:00,3.713046073913574
1994-06-28 23:00:00,3.713046073913574
1994-06-29 23:00:00,3.733334541320801
1994-06-30 23:00:00,3.733334541320801
1994-07-01 23:00:00,3.6724629402160645
1994-07-05 23:00:00,3.571014404296875
1994-07-06 23:00:00,3.6927523612976074
1994-07-07 23:00:00,3.6318819522857666
1994-07-08 23:00:00,3.571014404296875
1994-07-11 23:00:00,3.6165246963500977
1994-07-12 23:00:00,3.6165246963500977
1994-07-13 23:00:00,3.5758910179138184
1994-07-14 23:00:00,3.5352563858032227
1994-07-15 23:00:00,3.494619607925415
1994-07-18 23:00:00,3.555572748184204
1994-07-19 23:00:00,3.494619607925415
1994-07-20 23:00:00,3.4539875984191895
1994-07-21 23:00:00,3.4743025302886963
1994-07-22 23:00:00,3.393031597137451
1994-07-25 23:00:00,3.271127462387085
1994-07-26 23:00:00,3.230492353439331
1994-07-27 23:00:00,3.210175037384033
1994-07-28 23:00:00,3.250810146331787
1994-07-29 23:00:00,3.230492353439331
1994-08-01 23:00:00,3.250810146331787
1994-08-02 23:00:00,3.250810146331787
1994-08-03 23:00:00,3.250810146331787
1994-08-04 23:00:00,3.250810146331787
1994-08-05 23:00:00,3.1085872650146484
1994-08-08 23:00:00,3.149221658706665
1994-08-09 23:00:00,3.250810146331787
1994-08-10 23:00:00,3.2914440631866455
1994-08-11 23:00:00,3.230492353439331
1994-08-12 23:00:00,3.250810146331787
1994-08-15 23:00:00,3.230492353439331
1994-08-16 23:00:00,3.210175037384033
1994-08-17 23:00:00,3.230492353439331
1994-08-18 23:00:00,3.210175037384033
1994-08-19 23:00:00,3.1898555755615234
1994-08-22 23:00:00,3.1289031505584717
1994-08-23 23:00:00,3.149221658706665
1994-08-24 23:00:00,3.210175037384033
1994-08-25 23:00:00,3.1085872650146484
1994-08-26 23:00:00,3.1289031505584717
1994-08-29 23:00:00,3.067950963973999
1994-08-30 23:00:00,3.1289031505584717
1994-08-31 23:00:00,3.1289031505584717
1994-09-01 23:00:00,3.149221658706665
1994-09-02 23:00:00,3.210175037384033
1994-09-06 23:00:00,3.271127462387085
1994-09-07 23:00:00,3.3727145195007324
1994-09-08 23:00:00,3.5352563858032227
1994-09-09 23:00:00,3.3320791721343994
1994-09-12 23:00:00,3.3320791721343994
1994-09-13 23:00:00,3.35239839553833
1994-09-14 23:00:00,3.413351535797119
1994-09-15 23:00:00,3.413351535797119
1994-09-16 23:00:00,3.494619607925415
1994-09-19 23:00:00,3.413351535797119
1994-09-20 23:00:00,3.3320791721343994
1994-09-21 23:00:00,3.250810146331787
1994-09-22 23:00:00,3.250810146331787
1994-09-23 23:00:00,3.3727145195007324
1994-09-26 23:00:00,3.413351535797119
1994-09-27 23:00:00,3.3727145195007324
1994-09-28 23:00:00,3.35239839553833
1994-09-29 23:00:00,3.35239839553833
1994-09-30 23:00:00,3.311763048171997
1994-10-03 23:00:00,3.2914440631866455
1994-10-04 23:00:00,3.230492353439331
1994-10-05 23:00:00,3.271127462387085
1994-10-06 23:00:00,3.2914440631866455
1994-10-07 23:00:00,3.4387614727020264
1994-10-10 23:00:00,3.459110736846924
1994-10-11 23:00:00,3.459110736846924
1994-10-12 23:00:00,3.357370376586914
1994-10-13 23:00:00,3.4184160232543945
1994-10-14 23:00:00,3.4184160232543945
1994-10-17 23:00:00,3.4184160232543945
1994-10-18 23:00:00,3.4998064041137695
1994-10-19 23:00:00,3.4794578552246094
1994-10-20 23:00:00,3.4184160232543945
1994-10-21 23:00:00,3.398064136505127
1994-10-24 23:00:00,3.459110736846924
1994-10-25 23:00:00,3.4184160232543945
1994-10-26 23:00:00,3.5201549530029297
1994-10-27 23:00:00,3.601543426513672
1994-10-28 23:00:00,3.682934045791626
1994-10-31 23:00:00,3.601543426513672
1994-11-01 23:00:00,3.621891975402832
1994-11-02 23:00:00,3.560847520828247
1994-11-03 23:00:00,3.601543426513672
1994-11-04 23:00:00,3.560847520828247
1994-11-07 23:00:00,3.540501594543457
1994-11-08 23:00:00,3.5201549530029297
1994-11-09 23:00:00,3.540501594543457
1994-11-10 23:00:00,3.540501594543457
1994-11-11 23:00:00,3.4794578552246094
1994-11-14 23:00:00,3.4184160232543945
1994-11-15 23:00:00,3.4387614727020264
1994-11-16 23:00:00,3.357370376586914
1994-11-17 23:00:00,3.235285758972168
1994-11-18 23:00:00,3.11319899559021
1994-11-21 23:00:00,3.0928516387939453
1994-11-22 23:00:00,3.052156925201416
1994-11-23 23:00:00,2.991111993789673
1994-11-25 23:00:00,2.9504172801971436
1994-11-28 23:00:00,2.9504172801971436
1994-11-29 23:00:00,2.991111993789673
1994-11-30 23:00:00,2.9504172801971436
1994-12-01 23:00:00,3.011460542678833
1994-12-02 23:00:00,3.011460542678833
1994-12-05 23:00:00,2.84867787361145
1994-12-06 23:00:00,2.84867787361145
1994-12-07 23:00:00,2.9707634449005127
1994-12-08 23:00:00,3.052156925201416
1994-12-09 23:00:00,2.991111993789673
1994-12-12 23:00:00,3.0318076610565186
1994-12-13 23:00:00,3.0928516387939453
1994-12-14 23:00:00,3.214937686920166
1994-12-15 23:00:00,3.153893232345581
1994-12-16 23:00:00,3.153893232345581
1994-12-19 23:00:00,3.1335463523864746
1994-12-20 23:00:00,3.0318076610565186
1994-12-21 23:00:00,3.011460542678833
1994-12-22 23:00:00,2.9504172801971436
1994-12-23 23:00:00,2.9707634449005127
1994-12-27 23:00:00,2.9300689697265625
1994-12-28 23:00:00,2.991111993789673
1994-12-29 23:00:00,3.0725014209747314
1994-12-30 23:00:00,3.052156925201416
1995-01-03 23:00:00,3.0928516387939453
1995-01-04 23:00:00,3.0725014209747314
1995-01-05 23:00:00,3.0318076610565186
1995-01-06 23:00:00,2.9707634449005127
1995-01-09 23:00:00,2.914513111114502
1995-01-10 23:00:00,2.8126063346862793
1995-01-11 23:00:00,2.873751401901245
1995-01-12 23:00:00,2.8126063346862793
1995-01-13 23:00:00,2.853368043899536
1995-01-16 23:00:00,2.8126063346862793
1995-01-17 23:00:00,2.873751401901245
1995-01-18 23:00:00,2.9756548404693604
1995-01-19 23:00:00,2.9348952770233154
1995-01-20 23:00:00,2.955274820327759
1995-01-23 23:00:00,2.853368043899536
1995-01-24 23:00:00,2.955274820327759
1995-01-25 23:00:00,2.9348952770233154
1995-01-26 23:00:00,3.016418933868408
1995-01-27 23:00:00,2.955274820327759
1995-01-30 23:00:00,2.914513111114502
1995-01-31 23:00:00,2.894132137298584
1995-02-01 23:00:00,2.914513111114502
1995-02-02 23:00:00,2.914513111114502
1995-02-03 23:00:00,2.9348952770233154
1995-02-06 23:00:00,3.0979437828063965
1995-02-07 23:00:00,3.0571787357330322
1995-02-08 23:00:00,3.0979437828063965
1995-02-09 23:00:00,3.0571787357330322
1995-02-10 23:00:00,3.118325710296631
1995-02-13 23:00:00,3.159088611602783
1995-02-14 23:00:00,3.159088611602783
1995-02-15 23:00:00,3.2202322483062744
1995-02-16 23:00:00,3.260993242263794
1995-02-17 23:00:00,3.3425185680389404
1995-02-21 23:00:00,3.3425185680389404
1995-02-22 23:00:00,3.322136640548706
1995-02-23 23:00:00,3.362898588180542
1995-02-24 23:00:00,3.3425185680389404
1995-02-27 23:00:00,3.362898588180542
1995-02-28 23:00:00,3.4036619663238525
1995-03-01 23:00:00,3.362898588180542
1995-03-02 23:00:00,3.424041748046875
1995-03-03 23:00:00,3.424041748046875
1995-03-06 23:00:00,3.4036619663238525
1995-03-07 23:00:00,3.3425185680389404
1995-03-08 23:00:00,3.4036619663238525
1995-03-09 23:00:00,3.4444241523742676
1995-03-10 23:00:00,3.362898588180542
1995-03-13 23:00:00,3.383279800415039
1995-03-14 23:00:00,3.424041748046875
1995-03-15 23:00:00,3.4648044109344482
1995-03-16 23:00:00,3.546329975128174
1995-03-17 23:00:00,3.546329975128174
1995-03-20 23:00:00,3.4851865768432617
1995-03-21 23:00:00,3.424041748046875
1995-03-22 23:00:00,3.4648044109344482
1995-03-23 23:00:00,3.5259501934051514
1995-03-24 23:00:00,3.4648044109344482
1995-03-27 23:00:00,3.587092638015747
1995-03-28 23:00:00,3.627854824066162
1995-03-29 23:00:00,3.6686179637908936
1995-03-30 23:00:00,3.831669807434082
1995-03-31 23:00:00,4.015097141265869
1995-04-03 23:00:00,3.892810821533203
1995-04-04 23:00:00,3.831669807434082
1995-04-05 23:00:00,3.8520474433898926
1995-04-06 23:00:00,3.7297608852386475
1995-04-07 23:00:00,3.6734354496002197
1995-04-10 23:00:00,3.755068302154541
1995-04-11 23:00:00,3.755068302154541
1995-04-12 23:00:00,3.775473117828369
1995-04-13 23:00:00,3.755068302154541
1995-04-17 23:00:00,3.755068302154541
1995-04-18 23:00:00,3.6326193809509277
1995-04-19 23:00:00,3.6734354496002197
1995-04-20 23:00:00,3.775473117828369
1995-04-21 23:00:00,3.979555130004883
1995-04-24 23:00:00,3.877514123916626
1995-04-25 23:00:00,3.816288709640503
1995-04-26 23:00:00,3.775473117828369
1995-04-27 23:00:00,3.693842887878418
1995-04-28 23:00:00,3.73465633392334
1995-05-01 23:00:00,3.755068302154541
1995-05-02 23:00:00,3.755068302154541
1995-05-03 23:00:00,3.755068302154541
1995-05-04 23:00:00,3.73465633392334
1995-05-05 23:00:00,3.693842887878418
1995-05-08 23:00:00,3.693842887878418
1995-05-09 23:00:00,3.795881986618042
1995-05-10 23:00:00,3.877514123916626
1995-05-11 23:00:00,3.795881986618042
1995-05-12 23:00:00,3.775473117828369
1995-05-15 23:00:00,3.8366973400115967
1995-05-16 23:00:00,3.816288709640503
1995-05-17 23:00:00,3.795881986618042
1995-05-18 23:00:00,3.73465633392334
1995-05-19 23:00:00,3.755068302154541
1995-05-22 23:00:00,3.7142505645751953
1995-05-23 23:00:00,3.8366973400115967
1995-05-24 23:00:00,3.979555130004883
1995-05-25 23:00:00,3.959146499633789
1995-05-26 23:00:00,3.897921562194824
1995-05-30 23:00:00,3.938739776611328
1995-05-31 23:00:00,3.959146499633789
1995-06-01 23:00:00,3.938739776611328
1995-06-02 23:00:00,3.897921562194824
1995-06-05 23:00:00,3.9183311462402344
1995-06-06 23:00:00,3.857106924057007
1995-06-07 23:00:00,3.795881986618042
1995-06-08 23:00:00,3.775473117828369
1995-06-09 23:00:00,3.775473117828369
1995-06-12 23:00:00,3.755068302154541
1995-06-13 23:00:00,3.73465633392334
1995-06-14 23:00:00,3.775473117828369
1995-06-15 23:00:00,3.795881986618042
1995-06-16 23:00:00,3.7142505645751953
1995-06-19 23:00:00,3.7142505645751953
1995-06-20 23:00:00,3.4897632598876953
1995-06-21 23:00:00,3.4081318378448486
1995-06-22 23:00:00,3.367314577102661
1995-06-23 23:00:00,3.469355583190918
1995-06-26 23:00:00,3.4897632598876953
1995-06-27 23:00:00,3.530579090118408
1995-06-28 23:00:00,3.428539752960205
1995-06-29 23:00:00,3.387722969055176
1995-06-30 23:00:00,3.5509867668151855
1995-07-03 23:00:00,3.5713961124420166
1995-07-05 23:00:00,3.448948860168457
1995-07-06 23:00:00,3.428539752960205
1995-07-07 23:00:00,3.428539752960205
1995-07-10 23:00:00,3.3469061851501465
1995-07-11 23:00:00,3.367314577102661
1995-07-12 23:00:00,3.43353271484375
1995-07-13 23:00:00,3.413095712661743
1995-07-14 23:00:00,3.392657518386841
1995-07-17 23:00:00,3.413095712661743
1995-07-18 23:00:00,3.4539732933044434
1995-07-19 23:00:00,3.43353271484375
1995-07-20 23:00:00,3.4539732933044434
1995-07-21 23:00:00,3.4948456287384033
1995-07-24 23:00:00,3.5152835845947266
1995-07-25 23:00:00,3.5561602115631104
1995-07-26 23:00:00,3.4948456287384033
1995-07-27 23:00:00,3.4539732933044434
1995-07-28 23:00:00,3.5152835845947266
1995-07-31 23:00:00,3.5357208251953125
1995-08-01 23:00:00,3.413095712661743
1995-08-02 23:00:00,3.413095712661743
1995-08-03 23:00:00,3.4948456287384033
1995-08-04 23:00:00,3.4948456287384033
1995-08-07 23:00:00,3.5152835845947266
1995-08-08 23:00:00,3.4948456287384033
1995-08-09 23:00:00,3.474409818649292
1995-08-10 23:00:00,3.392657518386841
1995-08-11 23:00:00,3.474409818649292
1995-08-14 23:00:00,3.43353271484375
1995-08-15 23:00:00,3.43353271484375
1995-08-16 23:00:00,3.413095712661743
1995-08-17 23:00:00,3.4539732933044434
1995-08-18 23:00:00,3.5357208251953125
1995-08-21 23:00:00,3.5357208251953125
1995-08-22 23:00:00,3.617473602294922
1995-08-23 23:00:00,3.6787867546081543
1995-08-24 23:00:00,3.5970335006713867
1995-08-25 23:00:00,3.5970335006713867
1995-08-28 23:00:00,3.617473602294922
1995-08-29 23:00:00,3.617473602294922
1995-08-30 23:00:00,3.6992249488830566
1995-08-31 23:00:00,3.801409959793091
1995-09-01 23:00:00,3.9036009311676025
1995-09-05 23:00:00,3.9444761276245117
1995-09-06 23:00:00,3.924038887023926
1995-09-07 23:00:00,3.9444761276245117
1995-09-08 23:00:00,3.8831629753112793
1995-09-11 23:00:00,3.9444761276245117
1995-09-12 23:00:00,4.026225566864014
1995-09-13 23:00:00,3.9649126529693604
1995-09-14 23:00:00,3.9853501319885254
1995-09-15 23:00:00,4.046664714813232
1995-09-18 23:00:00,4.067104339599609
1995-09-19 23:00:00,4.026225566864014
1995-09-20 23:00:00,3.924038887023926
1995-09-21 23:00:00,3.9444761276245117
1995-09-22 23:00:00,3.842287063598633
1995-09-25 23:00:00,3.7809736728668213
1995-09-26 23:00:00,3.6992249488830566
1995-09-27 23:00:00,3.760537624359131
1995-09-28 23:00:00,3.6787867546081543
1995-09-29 23:00:00,3.5561602115631104
1995-10-02 23:00:00,3.658348321914673
1995-10-03 23:00:00,3.6992249488830566
1995-10-04 23:00:00,3.6992249488830566
1995-10-05 23:00:00,3.617473602294922
1995-10-06 23:00:00,3.637911081314087
1995-10-09 23:00:00,3.5970335006713867
1995-10-10 23:00:00,3.5152835845947266
1995-10-11 23:00:00,3.4948456287384033
1995-10-12 23:00:00,3.6020894050598145
1995-10-13 23:00:00,3.6225578784942627
1995-10-16 23:00:00,3.5816259384155273
1995-10-17 23:00:00,3.6020894050598145
1995-10-18 23:00:00,3.438358783721924
1995-10-19 23:00:00,3.4178926944732666
1995-10-20 23:00:00,3.356492280960083
1995-10-23 23:00:00,3.2746269702911377
1995-10-24 23:00:00,3.2336955070495605
1995-10-25 23:00:00,3.090430736541748
1995-10-26 23:00:00,3.090430736541748
1995-10-27 23:00:00,3.1927621364593506
1995-10-30 23:00:00,3.2541611194610596
1995-10-31 23:00:00,3.2746269702911377
1995-11-01 23:00:00,3.2746269702911377
1995-11-02 23:00:00,3.2336955070495605
1995-11-03 23:00:00,3.2541611194610596
1995-11-06 23:00:00,3.2132320404052734
1995-11-07 23:00:00,3.2950940132141113
1995-11-08 23:00:00,3.2746269702911377
1995-11-09 23:00:00,3.2950940132141113
1995-11-10 23:00:00,3.2132320404052734
1995-11-13 23:00:00,3.336027145385742
1995-11-14 23:00:00,3.2541611194610596
1995-11-15 23:00:00,3.2746269702911377
1995-11-16 23:00:00,3.5202250480651855
1995-11-17 23:00:00,3.5406904220581055
1995-11-20 23:00:00,3.3974251747131348
1995-11-21 23:00:00,3.4997575283050537
1995-11-22 23:00:00,3.5406904220581055
1995-11-24 23:00:00,3.479292869567871
1995-11-27 23:00:00,3.3974251747131348
1995-11-28 23:00:00,3.438358783721924
1995-11-29 23:00:00,3.4178926944732666
1995-11-30 23:00:00,3.438358783721924
1995-12-01 23:00:00,3.4588279724121094
1995-12-04 23:00:00,3.479292869567871
1995-12-05 23:00:00,3.5202250480651855
1995-12-06 23:00:00,3.5611581802368164
1995-12-07 23:00:00,3.6020894050598145
1995-12-08 23:00:00,3.704422950744629
1995-12-11 23:00:00,3.847689390182495
1995-12-12 23:00:00,3.847689390182495
1995-12-13 23:00:00,3.9295544624328613
1995-12-14 23:00:00,3.868155002593994
1995-12-15 23:00:00,3.9295544624328613
1995-12-18 23:00:00,3.909088134765625
1995-12-19 23:00:00,3.9704859256744385
1995-12-20 23:00:00,3.950019598007202
1995-12-21 23:00:00,3.950019598007202
1995-12-22 23:00:00,3.950019598007202
1995-12-26 23:00:00,3.950019598007202
1995-12-27 23:00:00,3.888619899749756
1995-12-28 23:00:00,4.031886100769043
1995-12-29 23:00:00,3.9295544624328613
1996-01-02 23:00:00,3.9909539222717285
1996-01-03 23:00:00,3.909088134765625
1996-01-04 23:00:00,3.909088134765625
1996-01-05 23:00:00,3.9704859256744385
1996-01-08 23:00:00,4.011421203613281
1996-01-09 23:00:00,3.9295544624328613
1996-01-10 23:00:00,3.909088134765625
1996-01-11 23:00:00,3.7910521030426025
1996-01-12 23:00:00,3.8115437030792236
1996-01-15 23:00:00,3.770562171936035
1996-01-16 23:00:00,3.770562171936035
1996-01-17 23:00:00,3.770562171936035
1996-01-18 23:00:00,3.7910521030426025
1996-01-19 23:00:00,3.770562171936035
1996-01-22 23:00:00,3.8525302410125732
1996-01-23 23:00:00,3.7910521030426025
1996-01-24 23:00:00,3.8525302410125732
1996-01-25 23:00:00,3.8935110569000244
1996-01-26 23:00:00,3.8525302410125732
1996-01-29 23:00:00,3.9344961643218994
1996-01-30 23:00:00,3.954988718032837
1996-01-31 23:00:00,3.9959754943847656
1996-02-01 23:00:00,4.077942371368408
1996-02-02 23:00:00,4.03695821762085
1996-02-05 23:00:00,3.9959754943847656
1996-02-06 23:00:00,3.954988718032837
1996-02-07 23:00:00,4.0164666175842285
1996-02-08 23:00:00,4.057450771331787
1996-02-09 23:00:00,4.098433494567871
1996-02-12 23:00:00,4.282864570617676
1996-02-13 23:00:00,4.159912586212158
1996-02-14 23:00:00,4.3033576011657715
1996-02-15 23:00:00,4.528770923614502
1996-02-16 23:00:00,4.426308631896973
1996-02-20 23:00:00,4.344338893890381
1996-02-21 23:00:00,4.405816555023193
1996-02-22 23:00:00,4.385324478149414
1996-02-23 23:00:00,4.405816555023193
1996-02-26 23:00:00,4.323850631713867
1996-02-27 23:00:00,4.323850631713867
1996-02-28 23:00:00,4.2008957862854
1996-02-29 23:00:00,4.098433494567871
1996-03-01 23:00:00,4.098433494567871
1996-03-04 23:00:00,4.139420986175537
1996-03-05 23:00:00,4.098433494567871
1996-03-06 23:00:00,4.2008957862854
1996-03-07 23:00:00,4.180403232574463
1996-03-08 23:00:00,4.077942371368408
1996-03-11 23:00:00,4.03695821762085
1996-03-12 23:00:00,4.0164666175842285
1996-03-13 23:00:00,4.057450771331787
1996-03-14 23:00:00,4.139420986175537
1996-03-15 23:00:00,3.9754798412323
1996-03-18 23:00:00,4.180403232574463
1996-03-19 23:00:00,4.159912586212158
1996-03-20 23:00:00,4.057450771331787
1996-03-21 23:00:00,4.0164666175842285
1996-03-22 23:00:00,3.9959754943847656
1996-03-25 23:00:00,4.118926525115967
1996-03-26 23:00:00,4.139420986175537
1996-03-27 23:00:00,4.282864570617676
1996-03-28 23:00:00,4.364831924438477
1996-03-29 23:00:00,4.323850631713867
1996-04-01 23:00:00,4.385324478149414
1996-04-02 23:00:00,4.487787246704102
1996-04-03 23:00:00,4.549261093139648
1996-04-04 23:00:00,4.508277893066406
1996-04-08 23:00:00,4.4672932624816895
1996-04-09 23:00:00,4.508277893066406
1996-04-10 23:00:00,4.549261093139648
1996-04-11 23:00:00,4.513158321380615
1996-04-12 23:00:00,4.369555473327637
1996-04-15 23:00:00,4.431099891662598
1996-04-16 23:00:00,4.431099891662598
1996-04-17 23:00:00,4.390073299407959
1996-04-18 23:00:00,4.2874979972839355
1996-04-19 23:00:00,4.369555473327637
1996-04-22 23:00:00,4.472128391265869
1996-04-23 23:00:00,4.533671855926514
1996-04-24 23:00:00,4.615730285644531
1996-04-25 23:00:00,4.554187297821045
1996-04-26 23:00:00,4.451617240905762
1996-04-29 23:00:00,4.451617240905762
1996-04-30 23:00:00,4.349041938781738
1996-05-01 23:00:00,4.266984939575195
1996-05-02 23:00:00,4.3080153465271
1996-05-03 23:00:00,4.349041938781738
1996-05-06 23:00:00,4.3080153465271
1996-05-07 23:00:00,4.0823564529418945
1996-05-08 23:00:00,4.102869510650635
1996-05-09 23:00:00,4.184928894042969
1996-05-10 23:00:00,4.143900394439697
1996-05-13 23:00:00,4.102869510650635
1996-05-14 23:00:00,4.041326999664307
1996-05-15 23:00:00,4.143900394439697
1996-05-16 23:00:00,4.123386383056641
1996-05-17 23:00:00,4.102869510650635
1996-05-20 23:00:00,4.164414405822754
1996-05-21 23:00:00,4.225955009460449
1996-05-22 23:00:00,4.266984939575195
1996-05-23 23:00:00,4.3080153465271
1996-05-24 23:00:00,4.266984939575195
1996-05-28 23:00:00,4.225955009460449
1996-05-29 23:00:00,4.184928894042969
1996-05-30 23:00:00,4.143900394439697
1996-05-31 23:00:00,4.143900394439697
1996-06-03 23:00:00,4.143900394439697
1996-06-04 23:00:00,4.184928894042969
1996-06-05 23:00:00,4.225955009460449
1996-06-06 23:00:00,4.123386383056641
1996-06-07 23:00:00,4.164414405822754
1996-06-10 23:00:00,4.143900394439697
1996-06-11 23:00:00,4.143900394439697
1996-06-12 23:00:00,4.123386383056641
1996-06-13 23:00:00,4.0618391036987305
1996-06-14 23:00:00,4.041326999664307
1996-06-17 23:00:00,3.9797840118408203
1996-06-18 23:00:00,3.918241024017334
1996-06-19 23:00:00,3.9797840118408203
1996-06-20 23:00:00,4.000298976898193
1996-06-21 23:00:00,3.938754081726074
1996-06-24 23:00:00,3.938754081726074
1996-06-25 23:00:00,4.041326999664307
1996-06-26 23:00:00,4.349041938781738
1996-06-27 23:00:00,4.431099891662598
1996-06-28 23:00:00,4.574699401855469
1996-07-01 23:00:00,4.779844284057617
1996-07-02 23:00:00,4.738814353942871
1996-07-03 23:00:00,4.738814353942871
1996-07-05 23:00:00,4.779844284057617
1996-07-08 23:00:00,4.759329795837402
1996-07-09 23:00:00,4.923444747924805
1996-07-10 23:00:00,4.964472770690918
1996-07-11 23:00:00,4.722985744476318
1996-07-12 23:00:00,4.702450275421143
1996-07-15 23:00:00,4.681915283203125
1996-07-16 23:00:00,4.373895168304443
1996-07-17 23:00:00,4.394432544708252
1996-07-18 23:00:00,4.414963722229004
1996-07-19 23:00:00,4.394432544708252
1996-07-22 23:00:00,4.332826614379883
1996-07-23 23:00:00,4.476569652557373
1996-07-24 23:00:00,4.353362083435059
1996-07-25 23:00:00,4.189080715179443
1996-07-26 23:00:00,4.2917561531066895
1996-07-29 23:00:00,4.27122163772583
1996-07-30 23:00:00,4.148012638092041
1996-07-31 23:00:00,4.106943130493164
1996-08-01 23:00:00,4.148012638092041
1996-08-02 23:00:00,4.250686168670654
1996-08-05 23:00:00,4.332826614379883
1996-08-06 23:00:00,4.373895168304443
1996-08-07 23:00:00,4.497102737426758
1996-08-08 23:00:00,4.497102737426758
1996-08-09 23:00:00,4.414963722229004
1996-08-12 23:00:00,4.353362083435059
1996-08-13 23:00:00,4.353362083435059
1996-08-14 23:00:00,4.373895168304443
1996-08-15 23:00:00,4.43549919128418
1996-08-16 23:00:00,4.414963722229004
1996-08-19 23:00:00,4.456035137176514
1996-08-20 23:00:00,4.43549919128418
1996-08-21 23:00:00,4.373895168304443
1996-08-22 23:00:00,4.373895168304443
1996-08-23 23:00:00,4.353362083435059
1996-08-26 23:00:00,4.373895168304443
1996-08-27 23:00:00,4.27122163772583
1996-08-28 23:00:00,4.250686168670654
1996-08-29 23:00:00,4.250686168670654
1996-08-30 23:00:00,4.250686168670654
1996-09-03 23:00:00,4.312290191650391
1996-09-04 23:00:00,4.250686168670654
1996-09-05 23:00:00,4.2301506996154785
1996-09-06 23:00:00,4.250686168670654
1996-09-09 23:00:00,4.27122163772583
1996-09-10 23:00:00,4.250686168670654
1996-09-11 23:00:00,4.312290191650391
1996-09-12 23:00:00,4.148012638092041
1996-09-13 23:00:00,4.024805068969727
1996-09-16 23:00:00,3.983734369277954
1996-09-17 23:00:00,3.8605263233184814
1996-09-18 23:00:00,3.9426684379577637
1996-09-19 23:00:00,3.963200330734253
1996-09-20 23:00:00,3.963200330734253
1996-09-23 23:00:00,3.963200330734253
1996-09-24 23:00:00,3.881061553955078
1996-09-25 23:00:00,3.9426684379577637
1996-09-26 23:00:00,4.024805068969727
1996-09-27 23:00:00,3.963200330734253
1996-09-30 23:00:00,4.086409568786621
1996-10-01 23:00:00,4.148012638092041
1996-10-02 23:00:00,4.189080715179443
1996-10-03 23:00:00,4.127479553222656
1996-10-04 23:00:00,4.127479553222656
1996-10-07 23:00:00,4.209619045257568
1996-10-08 23:00:00,4.189080715179443
1996-10-09 23:00:00,4.148012638092041
1996-10-10 23:00:00,3.947354793548584
1996-10-11 23:00:00,3.906237840652466
1996-10-14 23:00:00,3.8445606231689453
1996-10-15 23:00:00,3.947354793548584
1996-10-16 23:00:00,4.009032249450684
1996-10-17 23:00:00,4.111830711364746
1996-10-18 23:00:00,4.194064140319824
1996-10-21 23:00:00,4.111830711364746
1996-10-22 23:00:00,4.070711135864258
1996-10-23 23:00:00,3.947354793548584
1996-10-24 23:00:00,3.9884743690490723
1996-10-25 23:00:00,4.091269493103027
1996-10-28 23:00:00,4.009032249450684
1996-10-29 23:00:00,4.05015230178833
1996-10-30 23:00:00,4.194064140319824
1996-10-31 23:00:00,4.235184669494629
1996-11-01 23:00:00,4.132388591766357
1996-11-04 23:00:00,4.070711135864258
1996-11-05 23:00:00,4.091269493103027
1996-11-06 23:00:00,4.0295939445495605
1996-11-07 23:00:00,3.947354793548584
1996-11-08 23:00:00,4.05015230178833
1996-11-11 23:00:00,4.111830711364746
1996-11-12 23:00:00,4.111830711364746
1996-11-13 23:00:00,4.132388591766357
1996-11-14 23:00:00,4.152948379516602
1996-11-15 23:00:00,4.111830711364746
1996-11-18 23:00:00,4.111830711364746
1996-11-19 23:00:00,4.214625835418701
1996-11-20 23:00:00,4.461334228515625
1996-11-21 23:00:00,4.35853910446167
1996-11-22 23:00:00,4.584690093994141
1996-11-25 23:00:00,4.625810623168945
1996-11-26 23:00:00,4.523014545440674
1996-11-27 23:00:00,4.399656772613525
1996-11-29 23:00:00,4.379098415374756
1996-12-02 23:00:00,4.317421913146973
1996-12-03 23:00:00,4.440776348114014
1996-12-04 23:00:00,4.276301383972168
1996-12-05 23:00:00,4.35853910446167
1996-12-06 23:00:00,4.255742073059082
1996-12-09 23:00:00,4.214625835418701
1996-12-10 23:00:00,4.276301383972168
1996-12-11 23:00:00,4.152948379516602
1996-12-12 23:00:00,4.111830711364746
1996-12-13 23:00:00,4.111830711364746
1996-12-16 23:00:00,4.173504829406738
1996-12-17 23:00:00,4.255742073059082
1996-12-18 23:00:00,4.235184669494629
1996-12-19 23:00:00,4.235184669494629
1996-12-20 23:00:00,4.235184669494629
1996-12-23 23:00:00,4.255742073059082
1996-12-24 23:00:00,4.255742073059082
1996-12-26 23:00:00,4.255742073059082
1996-12-27 23:00:00,4.35853910446167
1996-12-30 23:00:00,4.317421913146973
1996-12-31 23:00:00,4.152948379516602
1997-01-02 23:00:00,4.05015230178833
1997-01-03 23:00:00,4.111830711364746
1997-01-06 23:00:00,4.152948379516602
1997-01-07 23:00:00,4.194064140319824
1997-01-08 23:00:00,4.173504829406738
1997-01-09 23:00:00,4.235184669494629
1997-01-10 23:00:00,4.379098415374756
1997-01-13 23:00:00,4.3634538650512695
1997-01-14 23:00:00,4.322291851043701
1997-01-15 23:00:00,4.34287166595459
1997-01-16 23:00:00,4.3634538650512695
1997-01-17 23:00:00,4.322291851043701
1997-01-20 23:00:00,4.095884323120117
1997-01-21 23:00:00,4.034139156341553
1997-01-22 23:00:00,3.9723899364471436
1997-01-23 23:00:00,3.910645008087158
1997-01-24 23:00:00,3.8900601863861084
1997-01-27 23:00:00,3.8694815635681152
1997-01-28 23:00:00,3.8694815635681152
1997-01-29 23:00:00,3.7871510982513428
1997-01-30 23:00:00,3.8488986492156982
1997-01-31 23:00:00,3.828315019607544
1997-02-03 23:00:00,3.766566276550293
1997-02-04 23:00:00,3.6224918365478516
1997-02-05 23:00:00,3.7254016399383545
1997-02-06 23:00:00,3.6636545658111572
1997-02-07 23:00:00,3.498995780944824
1997-02-10 23:00:00,3.3137547969818115
1997-02-11 23:00:00,3.4166669845581055
1997-02-12 23:00:00,3.4784140586853027
1997-02-13 23:00:00,3.4784140586853027
1997-02-14 23:00:00,3.457831621170044
1997-02-18 23:00:00,3.4784140586853027
1997-02-19 23:00:00,3.4784140586853027
1997-02-20 23:00:00,3.3960864543914795
1997-02-21 23:00:00,3.457831621170044
1997-02-24 23:00:00,3.4166669845581055
1997-02-25 23:00:00,3.354921340942383
1997-02-26 23:00:00,3.3343393802642822
1997-02-27 23:00:00,3.3137547969818115
1997-02-28 23:00:00,3.3343393802642822
1997-03-03 23:00:00,3.3137547969818115
1997-03-04 23:00:00,3.4166669845581055
1997-03-05 23:00:00,3.4372518062591553
1997-03-06 23:00:00,3.5195770263671875
1997-03-07 23:00:00,3.4784140586853027
1997-03-10 23:00:00,3.560744047164917
1997-03-11 23:00:00,3.457831621170044
1997-03-12 23:00:00,3.3960864543914795
1997-03-13 23:00:00,3.4372518062591553
1997-03-14 23:00:00,3.457831621170044
1997-03-17 23:00:00,3.4372518062591553
1997-03-18 23:00:00,3.457831621170044
1997-03-19 23:00:00,3.4784140586853027
1997-03-20 23:00:00,3.498995780944824
1997-03-21 23:00:00,3.4784140586853027
1997-03-24 23:00:00,3.457831621170044
1997-03-25 23:00:00,3.4166669845581055
1997-03-26 23:00:00,3.4784140586853027
1997-03-27 23:00:00,3.4372518062591553
1997-03-31 23:00:00,3.4166669845581055
1997-04-01 23:00:00,3.457831621170044
1997-04-02 23:00:00,3.2314276695251465
1997-04-03 23:00:00,3.2314276695251465
1997-04-04 23:00:00,3.169680595397949
1997-04-07 23:00:00,3.066768169403076
1997-04-08 23:00:00,3.0256032943725586
1997-04-09 23:00:00,3.1079318523406982
1997-04-10 23:00:00,2.984441041946411
1997-04-11 23:00:00,2.8863041400909424
1997-04-14 23:00:00,2.9893875122070312
1997-04-15 23:00:00,3.010002374649048
1997-04-16 23:00:00,3.071852445602417
1997-04-17 23:00:00,3.051234722137451
1997-04-18 23:00:00,3.0306196212768555
1997-04-21 23:00:00,3.071852445602417
1997-04-22 23:00:00,3.15431809425354
1997-04-23 23:00:00,3.1130828857421875
1997-04-24 23:00:00,3.092468023300171
1997-04-25 23:00:00,3.051234722137451
1997-04-28 23:00:00,2.968770742416382
1997-04-29 23:00:00,3.133702039718628
1997-04-30 23:00:00,3.071852445602417
1997-05-01 23:00:00,3.092468023300171
1997-05-02 23:00:00,3.1749343872070312
1997-05-05 23:00:00,3.236786127090454
1997-05-06 23:00:00,3.195552349090576
1997-05-07 23:00:00,3.3192501068115234
1997-05-08 23:00:00,3.4223310947418213
1997-05-09 23:00:00,3.4017159938812256
1997-05-12 23:00:00,3.566646099090576
1997-05-13 23:00:00,3.4429492950439453
1997-05-14 23:00:00,3.4635655879974365
1997-05-15 23:00:00,3.4223310947418213
1997-05-16 23:00:00,3.4017159938812256
1997-05-19 23:00:00,3.4223310947418213
1997-05-20 23:00:00,3.4223310947418213
1997-05-21 23:00:00,3.4223310947418213
1997-05-22 23:00:00,3.504798173904419
1997-05-23 23:00:00,3.4841806888580322
1997-05-27 23:00:00,3.4017159938812256
1997-05-28 23:00:00,3.5254132747650146
1997-05-29 23:00:00,3.504798173904419
1997-05-30 23:00:00,3.5254132747650146
1997-06-02 23:00:00,3.4635655879974365
1997-06-03 23:00:00,3.4429492950439453
1997-06-04 23:00:00,3.4017159938812256
1997-06-05 23:00:00,3.4223310947418213
1997-06-06 23:00:00,3.360482931137085
1997-06-09 23:00:00,3.216167688369751
1997-06-10 23:00:00,3.133702039718628
1997-06-11 23:00:00,3.092468023300171
1997-06-12 23:00:00,3.1130828857421875
1997-06-13 23:00:00,3.133702039718628
1997-06-16 23:00:00,3.133702039718628
1997-06-17 23:00:00,3.216167688369751
1997-06-18 23:00:00,3.1130828857421875
1997-06-19 23:00:00,3.1130828857421875
1997-06-20 23:00:00,3.1130828857421875
1997-06-23 23:00:00,3.0306196212768555
1997-06-24 23:00:00,2.968770742416382
1997-06-25 23:00:00,2.968770742416382
1997-06-26 23:00:00,2.9893875122070312
1997-06-27 23:00:00,3.0306196212768555
1997-06-30 23:00:00,2.9893875122070312
1997-07-01 23:00:00,3.082160234451294
1997-07-02 23:00:00,3.0615456104278564
1997-07-03 23:00:00,2.999695062637329
1997-07-07 23:00:00,2.999695062637329
1997-07-08 23:00:00,2.9893875122070312
1997-07-09 23:00:00,2.968770742416382
1997-07-10 23:00:00,2.9893875122070312
1997-07-11 23:00:00,3.0253190994262695
1997-07-14 23:00:00,3.07694411277771
1997-07-15 23:00:00,3.1801998615264893
1997-07-16 23:00:00,3.138897180557251
1997-07-17 23:00:00,3.2834525108337402
1997-07-18 23:00:00,3.252476453781128
1997-07-21 23:00:00,3.221498489379883
1997-07-22 23:00:00,3.2008485794067383
1997-07-23 23:00:00,3.1285717487335205
1997-07-24 23:00:00,3.2111737728118896
1997-07-25 23:00:00,3.2834525108337402
1997-07-28 23:00:00,3.2731261253356934
1997-07-29 23:00:00,3.252476453781128
1997-07-30 23:00:00,3.3454034328460693
1997-07-31 23:00:00,3.366053342819214
1997-08-01 23:00:00,3.366053342819214
1997-08-04 23:00:00,3.438330888748169
1997-08-05 23:00:00,3.7584173679351807
1997-08-06 23:00:00,3.820369243621826
1997-08-07 23:00:00,3.9649219512939453
1997-08-08 23:00:00,3.7997171878814697
1997-08-11 23:00:00,3.7790677547454834
1997-08-12 23:00:00,3.655163288116455
1997-08-13 23:00:00,3.644838571548462
1997-08-14 23:00:00,3.7584173679351807
1997-08-15 23:00:00,3.686138391494751
1997-08-18 23:00:00,3.675814390182495
1997-08-19 23:00:00,3.737766981124878
1997-08-20 23:00:00,3.7997171878814697
1997-08-21 23:00:00,3.717113971710205
1997-08-22 23:00:00,3.737766981124878
1997-08-25 23:00:00,3.7584173679351807
1997-08-26 23:00:00,3.7893905639648438
1997-08-27 23:00:00,3.7997171878814697
1997-08-28 23:00:00,3.8410167694091797
1997-08-29 23:00:00,3.9855711460113525
1997-09-02 23:00:00,4.0062255859375
1997-09-03 23:00:00,4.099151134490967
1997-09-04 23:00:00,4.047523498535156
1997-09-05 23:00:00,3.9752490520477295
1997-09-08 23:00:00,3.9029719829559326
1997-09-09 23:00:00,3.9339451789855957
1997-09-10 23:00:00,3.954597234725952
1997-09-11 23:00:00,3.7997171878814697
1997-09-12 23:00:00,3.8410167694091797
1997-09-15 23:00:00,3.820369243621826
1997-09-16 23:00:00,3.851344585418701
1997-09-17 23:00:00,3.7790677547454834
1997-09-18 23:00:00,3.7997171878814697
1997-09-19 23:00:00,3.727442741394043
1997-09-22 23:00:00,3.768740177154541
1997-09-23 23:00:00,3.7584173679351807
1997-09-24 23:00:00,3.8410167694091797
1997-09-25 23:00:00,3.7997171878814697
1997-09-26 23:00:00,3.8100430965423584
1997-09-29 23:00:00,3.7584173679351807
1997-09-30 23:00:00,3.675814390182495
1997-10-01 23:00:00,3.675814390182495
1997-10-02 23:00:00,3.686138391494751
1997-10-03 23:00:00,3.737766981124878
1997-10-06 23:00:00,3.820369243621826
1997-10-07 23:00:00,3.8100430965423584
1997-10-08 23:00:00,3.7790677547454834
1997-10-09 23:00:00,3.737766981124878
1997-10-10 23:00:00,3.7220494747161865
1997-10-13 23:00:00,3.701374053955078
1997-10-14 23:00:00,3.660015821456909
1997-10-15 23:00:00,3.6393377780914307
1997-10-16 23:00:00,3.6289987564086914
1997-10-17 23:00:00,3.5773041248321533
1997-10-20 23:00:00,3.7117116451263428
1997-10-21 23:00:00,3.742729425430298
1997-10-22 23:00:00,3.784085273742676
1997-10-23 23:00:00,3.680694580078125
1997-10-24 23:00:00,3.784085273742676
1997-10-27 23:00:00,3.5049304962158203
1997-10-28 23:00:00,3.4222187995910645
1997-10-29 23:00:00,3.4945919513702393
1997-10-30 23:00:00,3.3808631896972656
1997-10-31 23:00:00,3.4842522144317627
1997-11-03 23:00:00,3.525609016418457
1997-11-04 23:00:00,3.4945919513702393
1997-11-05 23:00:00,3.4945919513702393
1997-11-06 23:00:00,3.432558059692383
1997-11-07 23:00:00,3.360184669494629
1997-11-10 23:00:00,3.442896842956543
1997-11-11 23:00:00,3.3395063877105713
1997-11-12 23:00:00,3.2774722576141357
1997-11-13 23:00:00,3.2154369354248047
1997-11-14 23:00:00,3.2464542388916016
1997-11-17 23:00:00,3.329167604446411
1997-11-18 23:00:00,3.236116409301758
1997-11-19 23:00:00,3.225776433944702
1997-11-20 23:00:00,3.3188271522521973
1997-11-21 23:00:00,3.3084876537323
1997-11-24 23:00:00,3.2774722576141357
1997-11-25 23:00:00,3.1637420654296875
1997-11-26 23:00:00,3.1223855018615723
1997-11-28 23:00:00,3.153404474258423
1997-12-01 23:00:00,3.0810294151306152
1997-12-02 23:00:00,3.132725715637207
1997-12-03 23:00:00,3.070692539215088
1997-12-04 23:00:00,3.1430649757385254
1997-12-05 23:00:00,3.174081563949585
1997-12-08 23:00:00,3.1947591304779053
1997-12-09 23:00:00,3.153404474258423
1997-12-10 23:00:00,3.1637420654296875
1997-12-11 23:00:00,3.1223855018615723
1997-12-12 23:00:00,3.1430649757385254
1997-12-15 23:00:00,3.153404474258423
1997-12-16 23:00:00,3.1947591304779053
1997-12-17 23:00:00,3.2567951679229736
1997-12-18 23:00:00,3.1947591304779053
1997-12-19 23:00:00,3.2154369354248047
1997-12-22 23:00:00,3.329167604446411
1997-12-23 23:00:00,3.3188271522521973
1997-12-24 23:00:00,3.370523452758789
1997-12-26 23:00:00,3.3498451709747314
1997-12-29 23:00:00,3.3808631896972656
1997-12-30 23:00:00,3.370523452758789
1997-12-31 23:00:00,3.5049304962158203
1998-01-02 23:00:00,3.4118804931640625
1998-01-05 23:00:00,3.3084876537323
1998-01-06 23:00:00,3.2464542388916016
1998-01-07 23:00:00,3.2774722576141357
1998-01-08 23:00:00,3.3084876537323
1998-01-09 23:00:00,3.153404474258423
1998-01-12 23:00:00,3.1947591304779053
1998-01-13 23:00:00,3.272216320037842
1998-01-14 23:00:00,3.28257155418396
1998-01-15 23:00:00,3.3136353492736816
1998-01-16 23:00:00,3.3550570011138916
1998-01-20 23:00:00,3.4482531547546387
1998-01-21 23:00:00,3.520740032196045
1998-01-22 23:00:00,3.365412473678589
1998-01-23 23:00:00,3.303281307220459
1998-01-26 23:00:00,3.2929277420043945
1998-01-27 23:00:00,3.3343470096588135
1998-01-28 23:00:00,3.323990821838379
1998-01-29 23:00:00,3.3550570011138916
1998-01-30 23:00:00,3.3136353492736816
1998-02-02 23:00:00,3.210085153579712
1998-02-03 23:00:00,3.251505136489868
1998-02-04 23:00:00,3.3550570011138916
1998-02-05 23:00:00,3.3964767456054688
1998-02-06 23:00:00,3.4793195724487305
1998-02-09 23:00:00,3.4482531547546387
1998-02-10 23:00:00,3.4482531547546387
1998-02-11 23:00:00,3.4068331718444824
1998-02-12 23:00:00,3.4068331718444824
1998-02-13 23:00:00,3.4068331718444824
1998-02-17 23:00:00,3.303281307220459
1998-02-18 23:00:00,3.375767230987549
1998-02-19 23:00:00,3.3343470096588135
1998-02-20 23:00:00,3.3550570011138916
1998-02-23 23:00:00,3.303281307220459
1998-02-24 23:00:00,3.3550570011138916
1998-02-25 23:00:00,3.3550570011138916
1998-02-26 23:00:00,3.510383367538452
1998-02-27 23:00:00,3.5414493083953857
1998-03-02 23:00:00,3.6242902278900146
1998-03-03 23:00:00,3.665710210800171
1998-03-04 23:00:00,3.6449999809265137
1998-03-05 23:00:00,3.6139352321624756
1998-03-06 23:00:00,3.520740032196045
1998-03-09 23:00:00,3.4378983974456787
1998-03-10 23:00:00,3.5310943126678467
1998-03-11 23:00:00,3.593226194381714
1998-03-12 23:00:00,3.6553561687469482
1998-03-13 23:00:00,3.7071328163146973
1998-03-16 23:00:00,3.520740032196045
1998-03-17 23:00:00,3.489673137664795
1998-03-18 23:00:00,3.603579521179199
1998-03-19 23:00:00,3.6553561687469482
1998-03-20 23:00:00,3.696775436401367
1998-03-23 23:00:00,3.934943675994873
1998-03-24 23:00:00,3.7899725437164307
1998-03-25 23:00:00,3.8106815814971924
1998-03-26 23:00:00,3.8106815814971924
1998-03-27 23:00:00,3.7692618370056152
1998-03-30 23:00:00,3.7899725437164307
1998-03-31 23:00:00,3.8003246784210205
1998-04-01 23:00:00,3.9038784503936768
1998-04-02 23:00:00,3.872812509536743
1998-04-03 23:00:00,3.872812509536743
1998-04-06 23:00:00,3.8210372924804688
1998-04-07 23:00:00,3.8935229778289795
1998-04-08 23:00:00,3.8210372924804688
1998-04-09 23:00:00,3.9452972412109375
1998-04-13 23:00:00,3.846592426300049
1998-04-14 23:00:00,3.877697467803955
1998-04-15 23:00:00,3.9606435298919678
1998-04-16 23:00:00,3.825857639312744
1998-04-17 23:00:00,3.898435354232788
1998-04-20 23:00:00,3.898435354232788
1998-04-21 23:00:00,3.898435354232788
1998-04-22 23:00:00,3.836226224899292
1998-04-23 23:00:00,3.7325422763824463
1998-04-24 23:00:00,3.7325422763824463
1998-04-27 23:00:00,3.7221755981445312
1998-04-28 23:00:00,3.7843832969665527
1998-04-29 23:00:00,3.815488576889038
1998-04-30 23:00:00,3.877697467803955
1998-05-01 23:00:00,3.856959819793701
1998-05-04 23:00:00,3.836226224899292
1998-05-05 23:00:00,3.815488576889038
1998-05-06 23:00:00,3.7014381885528564
1998-05-07 23:00:00,3.6910712718963623
1998-05-08 23:00:00,3.7325422763824463
1998-05-11 23:00:00,3.7014381885528564
1998-05-12 23:00:00,3.6495978832244873
1998-05-13 23:00:00,3.5977587699890137
1998-05-14 23:00:00,3.46297025680542
1998-05-15 23:00:00,3.483707904815674
1998-05-18 23:00:00,3.504443883895874
1998-05-19 23:00:00,3.4526026248931885
1998-05-20 23:00:00,3.483707904815674
1998-05-21 23:00:00,3.4318666458129883
1998-05-22 23:00:00,3.4318666458129883
1998-05-26 23:00:00,3.3178153038024902
1998-05-27 23:00:00,3.265977382659912
1998-05-28 23:00:00,3.3178153038024902
1998-05-29 23:00:00,3.369657516479492
1998-06-01 23:00:00,3.286712169647217
1998-06-02 23:00:00,3.307448387145996
1998-06-03 23:00:00,3.29708194732666
1998-06-04 23:00:00,3.29708194732666
1998-06-05 23:00:00,3.29708194732666
1998-06-08 23:00:00,3.2245028018951416
1998-06-09 23:00:00,3.172661781311035
1998-06-10 23:00:00,3.0897154808044434
1998-06-11 23:00:00,3.058612823486328
1998-06-12 23:00:00,3.151926279067993
1998-06-15 23:00:00,3.02750825881958
1998-06-16 23:00:00,3.02750825881958
1998-06-17 23:00:00,3.100084066390991
1998-06-18 23:00:00,3.058612823486328
1998-06-19 23:00:00,3.048243284225464
1998-06-22 23:00:00,3.193399667739868
1998-06-23 23:00:00,3.307448387145996
1998-06-24 23:00:00,3.348921060562134
1998-06-25 23:00:00,3.369657516479492
1998-06-26 23:00:00,3.359288454055786
1998-06-29 23:00:00,3.3178153038024902
1998-06-30 23:00:00,3.359288454055786
1998-07-01 23:00:00,3.3385536670684814
1998-07-02 23:00:00,3.348921060562134
1998-07-06 23:00:00,3.307448387145996
1998-07-07 23:00:00,3.234870433807373
1998-07-08 23:00:00,3.276343822479248
1998-07-09 23:00:00,3.234870433807373
1998-07-10 23:00:00,3.13118839263916
1998-07-13 23:00:00,2.9804022312164307
1998-07-14 23:00:00,3.0427119731903076
1998-07-15 23:00:00,2.9804022312164307
1998-07-16 23:00:00,2.9804022312164307
1998-07-17 23:00:00,2.9804022312164307
1998-07-20 23:00:00,2.907711982727051
1998-07-21 23:00:00,2.8350186347961426
1998-07-22 23:00:00,2.803864002227783
1998-07-23 23:00:00,2.803864002227783
1998-07-24 23:00:00,2.751939535140991
1998-07-27 23:00:00,2.731172800064087
1998-07-28 23:00:00,2.668863534927368
1998-07-29 23:00:00,2.6792478561401367
1998-07-30 23:00:00,2.6896326541900635
1998-07-31 23:00:00,2.637709140777588
1998-08-03 23:00:00,2.658477783203125
1998-08-04 23:00:00,2.596170425415039
1998-08-05 23:00:00,2.5546317100524902
1998-08-06 23:00:00,2.5546317100524902
1998-08-07 23:00:00,2.606555700302124
1998-08-10 23:00:00,2.4923243522644043
1998-08-11 23:00:00,2.440399646759033
1998-08-12 23:00:00,2.4923243522644043
1998-08-13 23:00:00,2.430015802383423
1998-08-14 23:00:00,2.4923243522644043
1998-08-17 23:00:00,2.450784683227539
1998-08-18 23:00:00,2.5130927562713623
1998-08-19 23:00:00,2.596170425415039
1998-08-20 23:00:00,2.637709140777588
1998-08-21 23:00:00,2.606555700302124
1998-08-24 23:00:00,2.5442473888397217
1998-08-25 23:00:00,2.4923243522644043
1998-08-26 23:00:00,2.4092469215393066
1998-08-27 23:00:00,2.3365530967712402
1998-08-28 23:00:00,2.2327065467834473
1998-08-31 23:00:00,2.1600148677825928
1998-09-01 23:00:00,2.243091106414795
1998-09-02 23:00:00,2.2015528678894043
1998-09-03 23:00:00,2.2015528678894043
1998-09-04 23:00:00,2.3261687755584717
1998-09-08 23:00:00,2.3573238849639893
1998-09-09 23:00:00,2.378091335296631
1998-09-10 23:00:00,2.3884775638580322
1998-09-11 23:00:00,2.5546317100524902
1998-09-14 23:00:00,2.606555700302124
1998-09-15 23:00:00,2.6896326541900635
1998-09-16 23:00:00,2.741555690765381
1998-09-17 23:00:00,2.731172800064087
1998-09-18 23:00:00,2.741555690765381
1998-09-21 23:00:00,2.783093214035034
1998-09-22 23:00:00,2.731172800064087
1998-09-23 23:00:00,3.0011744499206543
1998-09-24 23:00:00,2.907711982727051
1998-09-25 23:00:00,3.1154046058654785
1998-09-28 23:00:00,2.9804022312164307
1998-09-29 23:00:00,2.9804022312164307
1998-09-30 23:00:00,2.907711982727051
1998-10-01 23:00:00,2.751939535140991
1998-10-02 23:00:00,2.7934799194335938
1998-10-05 23:00:00,2.741555690765381
1998-10-06 23:00:00,2.731172800064087
1998-10-07 23:00:00,2.668863534927368
1998-10-08 23:00:00,2.575401544570923
1998-10-09 23:00:00,2.6480937004089355
1998-10-12 23:00:00,2.6273255348205566
1998-10-13 23:00:00,2.7363641262054443
1998-10-14 23:00:00,2.81959867477417
1998-10-15 23:00:00,2.7779805660247803
1998-10-16 23:00:00,2.8091936111450195
1998-10-19 23:00:00,2.725959062576294
1998-10-20 23:00:00,2.7467660903930664
1998-10-21 23:00:00,2.7987895011901855
1998-10-22 23:00:00,2.9028334617614746
1998-10-23 23:00:00,2.9028334617614746
1998-10-26 23:00:00,2.9132394790649414
1998-10-27 23:00:00,2.9028334617614746
1998-10-28 23:00:00,2.8612163066864014
1998-10-29 23:00:00,2.8508124351501465
1998-10-30 23:00:00,2.7779805660247803
1998-11-02 23:00:00,2.9028334617614746
1998-11-03 23:00:00,2.9028334617614746
1998-11-04 23:00:00,2.9028334617614746
1998-11-05 23:00:00,2.934046983718872
1998-11-06 23:00:00,3.0172841548919678
1998-11-09 23:00:00,3.0068788528442383
1998-11-10 23:00:00,2.892429828643799
1998-11-11 23:00:00,2.8716204166412354
1998-11-12 23:00:00,2.9652605056762695
1998-11-13 23:00:00,2.975663661956787
1998-11-16 23:00:00,2.9548563957214355
1998-11-17 23:00:00,2.892429828643799
1998-11-18 23:00:00,2.892429828643799
1998-11-19 23:00:00,2.8091936111450195
1998-11-20 23:00:00,2.8091936111450195
1998-11-23 23:00:00,2.7571706771850586
1998-11-24 23:00:00,2.7051494121551514
1998-11-25 23:00:00,2.6843411922454834
1998-11-27 23:00:00,2.715554714202881
1998-11-30 23:00:00,2.4970617294311523
1998-12-01 23:00:00,2.3826112747192383
1998-12-02 23:00:00,2.3409945964813232
1998-12-03 23:00:00,2.2473552227020264
1998-12-04 23:00:00,2.361804723739624
1998-12-07 23:00:00,2.4554431438446045
1998-12-08 23:00:00,2.3409945964813232
1998-12-09 23:00:00,2.3722083568573
1998-12-10 23:00:00,2.33059024810791
1998-12-11 23:00:00,2.273033618927002
1998-12-14 23:00:00,2.147913694381714
1998-12-15 23:00:00,2.5858383178710938
1998-12-16 23:00:00,2.7526655197143555
1998-12-17 23:00:00,2.7318131923675537
1998-12-18 23:00:00,2.8047995567321777
1998-12-21 23:00:00,2.7526655197143555
1998-12-22 23:00:00,2.763092279434204
1998-12-23 23:00:00,2.763092279434204
1998-12-24 23:00:00,2.8152267932891846
1998-12-28 23:00:00,2.7943716049194336
1998-12-29 23:00:00,2.8569347858428955
1998-12-30 23:00:00,2.8569347858428955
1998-12-31 23:00:00,2.8777871131896973
1999-01-04 23:00:00,2.919495105743408
1999-01-05 23:00:00,2.919495105743408
1999-01-06 23:00:00,2.971628189086914
1999-01-07 23:00:00,2.8569347858428955
1999-01-08 23:00:00,3.0029072761535645
1999-01-11 23:00:00,2.8777871131896973
1999-01-12 23:00:00,2.888214111328125
1999-01-13 23:00:00,2.851447820663452
1999-01-14 23:00:00,2.830559492111206
1999-01-15 23:00:00,2.80966854095459
1999-01-19 23:00:00,2.924562931060791
1999-01-20 23:00:00,2.924562931060791
1999-01-21 23:00:00,2.955897331237793
1999-01-22 23:00:00,3.008120536804199
1999-01-25 23:00:00,2.955897331237793
1999-01-26 23:00:00,2.882782220840454
1999-01-27 23:00:00,2.799221992492676
1999-01-28 23:00:00,2.799221992492676
1999-01-29 23:00:00,2.882782220840454
1999-02-01 23:00:00,2.799221992492676
1999-02-02 23:00:00,2.6321065425872803
1999-02-03 23:00:00,2.746999979019165
1999-02-04 23:00:00,2.7574429512023926
1999-02-05 23:00:00,2.830559492111206
1999-02-08 23:00:00,2.841003179550171
1999-02-09 23:00:00,2.851447820663452
1999-02-10 23:00:00,2.7887794971466064
1999-02-11 23:00:00,2.7783336639404297
1999-02-12 23:00:00,2.841003179550171
1999-02-16 23:00:00,2.7574429512023926
1999-02-17 23:00:00,2.746999979019165
1999-02-18 23:00:00,2.7261087894439697
1999-02-19 23:00:00,2.736555814743042
1999-02-22 23:00:00,2.746999979019165
1999-02-23 23:00:00,2.7156646251678467
1999-02-24 23:00:00,2.7261087894439697
1999-02-25 23:00:00,2.7887794971466064
1999-02-26 23:00:00,2.7574429512023926
1999-03-01 23:00:00,2.673884391784668
1999-03-02 23:00:00,2.705218553543091
1999-03-03 23:00:00,2.673884391784668
1999-03-04 23:00:00,2.767888069152832
1999-03-05 23:00:00,2.799221992492676
1999-03-08 23:00:00,2.851447820663452
1999-03-09 23:00:00,2.7261087894439697
1999-03-10 23:00:00,2.9036731719970703
1999-03-11 23:00:00,2.9036731719970703
1999-03-12 23:00:00,2.882782220840454
1999-03-15 23:00:00,2.861893653869629
1999-03-16 23:00:00,2.9036731719970703
1999-03-17 23:00:00,2.9976751804351807
1999-03-18 23:00:00,2.8932278156280518
1999-03-19 23:00:00,2.935006856918335
1999-03-22 23:00:00,2.882782220840454
1999-03-23 23:00:00,2.872337579727173
1999-03-24 23:00:00,2.830559492111206
1999-03-25 23:00:00,2.7574429512023926
1999-03-26 23:00:00,2.80966854095459
1999-03-29 23:00:00,2.882782220840454
1999-03-30 23:00:00,2.767888069152832
1999-03-31 23:00:00,2.7783336639404297
1999-04-01 23:00:00,2.799221992492676
1999-04-05 23:00:00,2.80966854095459
1999-04-06 23:00:00,2.7783336639404297
1999-04-07 23:00:00,2.736555814743042
1999-04-08 23:00:00,2.7156646251678467
1999-04-09 23:00:00,2.736555814743042
1999-04-12 23:00:00,2.830559492111206
1999-04-13 23:00:00,2.908825159072876
1999-04-14 23:00:00,2.8565070629119873
1999-04-15 23:00:00,2.9820687770843506
1999-04-16 23:00:00,3.170409679412842
1999-04-19 23:00:00,3.1808722019195557
1999-04-20 23:00:00,3.055311441421509
1999-04-21 23:00:00,3.1390185356140137
1999-04-22 23:00:00,3.1180918216705322
1999-04-23 23:00:00,3.0343868732452393
1999-04-26 23:00:00,2.9297518730163574
1999-04-27 23:00:00,3.086702346801758
1999-04-28 23:00:00,3.1808722019195557
1999-04-29 23:00:00,3.2017996311187744
1999-04-30 23:00:00,3.1808722019195557
1999-05-03 23:00:00,3.1808722019195557
1999-05-04 23:00:00,3.2227253913879395
1999-05-05 23:00:00,3.149481773376465
1999-05-06 23:00:00,3.0762386322021484
1999-05-07 23:00:00,3.1390185356140137
1999-05-10 23:00:00,3.233189105987549
1999-05-11 23:00:00,3.2436537742614746
1999-05-12 23:00:00,3.2436537742614746
1999-05-13 23:00:00,3.2750425338745117
1999-05-14 23:00:00,3.212261915206909
1999-05-17 23:00:00,3.2017996311187744
1999-05-18 23:00:00,3.170409679412842
1999-05-19 23:00:00,3.2436537742614746
1999-05-20 23:00:00,3.1913344860076904
1999-05-21 23:00:00,3.233189105987549
1999-05-24 23:00:00,3.1390185356140137
1999-05-25 23:00:00,3.128554105758667
1999-05-26 23:00:00,3.170409679412842
1999-05-27 23:00:00,3.1599462032318115
1999-05-28 23:00:00,3.1913344860076904
1999-06-01 23:00:00,3.149481773376465
1999-06-02 23:00:00,3.2645785808563232
1999-06-03 23:00:00,3.2645785808563232
1999-06-04 23:00:00,3.358750581741333
1999-06-07 23:00:00,3.431993007659912
1999-06-08 23:00:00,3.5052387714385986
1999-06-09 23:00:00,3.484311103820801
1999-06-10 23:00:00,3.484311103820801
1999-06-11 23:00:00,3.5052387714385986
1999-06-14 23:00:00,3.4947750568389893
1999-06-15 23:00:00,3.5052387714385986
1999-06-16 23:00:00,3.4529216289520264
1999-06-17 23:00:00,3.578481674194336
1999-06-18 23:00:00,3.56801700592041
1999-06-21 23:00:00,3.5366275310516357
1999-06-22 23:00:00,3.5261659622192383
1999-06-23 23:00:00,3.473846197128296
1999-06-24 23:00:00,3.4215312004089355
1999-06-25 23:00:00,3.4110684394836426
1999-06-28 23:00:00,3.3482871055603027
1999-06-29 23:00:00,3.3796772956848145
1999-06-30 23:00:00,3.3901400566101074
1999-07-01 23:00:00,3.4006030559539795
1999-07-02 23:00:00,3.4529216289520264
1999-07-06 23:00:00,3.4006030559539795
1999-07-07 23:00:00,3.4110684394836426
1999-07-08 23:00:00,3.4215312004089355
1999-07-09 23:00:00,3.3482871055603027
1999-07-12 23:00:00,3.3168976306915283
1999-07-13 23:00:00,3.3009681701660156
1999-07-14 23:00:00,3.3009681701660156
1999-07-15 23:00:00,3.290489673614502
1999-07-16 23:00:00,3.321927309036255
1999-07-19 23:00:00,3.3114466667175293
1999-07-20 23:00:00,3.426720142364502
1999-07-21 23:00:00,3.3533637523651123
1999-07-22 23:00:00,3.3952829837799072
1999-07-23 23:00:00,3.583909511566162
1999-07-26 23:00:00,3.4162399768829346
1999-07-27 23:00:00,3.3533637523651123
1999-07-28 23:00:00,3.374323606491089
1999-07-29 23:00:00,3.6153457164764404
1999-07-30 23:00:00,3.583909511566162
1999-08-02 23:00:00,3.6153457164764404
1999-08-03 23:00:00,3.5419914722442627
1999-08-04 23:00:00,3.6887011528015137
1999-08-05 23:00:00,3.8668487071990967
1999-08-06 23:00:00,4.181224822998047
1999-08-09 23:00:00,4.149789333343506
1999-08-10 23:00:00,3.7515769004821777
1999-08-11 23:00:00,3.8878071308135986
1999-08-12 23:00:00,3.940202474594116
1999-08-13 23:00:00,3.929723024368286
1999-08-16 23:00:00,3.8878071308135986
1999-08-17 23:00:00,3.898287057876587
1999-08-18 23:00:00,3.8773272037506104
1999-08-19 23:00:00,3.9611613750457764
1999-08-20 23:00:00,3.97164249420166
1999-08-23 23:00:00,3.9611613750457764
1999-08-24 23:00:00,3.9506843090057373
1999-08-25 23:00:00,3.9506843090057373
1999-08-26 23:00:00,3.8878071308135986
1999-08-27 23:00:00,3.8878071308135986
1999-08-30 23:00:00,3.9087657928466797
1999-08-31 23:00:00,4.003078937530518
1999-09-01 23:00:00,4.0345139503479
1999-09-02 23:00:00,3.919247627258301
1999-09-03 23:00:00,3.929723024368286
1999-09-07 23:00:00,4.013556957244873
1999-09-08 23:00:00,4.024039268493652
1999-09-09 23:00:00,4.2336225509643555
1999-09-10 23:00:00,4.149789333343506
1999-09-13 23:00:00,4.086913585662842
1999-09-14 23:00:00,3.9506843090057373
1999-09-15 23:00:00,3.845888376235962
1999-09-16 23:00:00,3.898287057876587
1999-09-17 23:00:00,3.9087657928466797
1999-09-20 23:00:00,4.055475234985352
1999-09-21 23:00:00,3.83541202545166
1999-09-22 23:00:00,3.83541202545166
1999-09-23 23:00:00,3.7410967350006104
1999-09-24 23:00:00,3.5105535984039307
1999-09-27 23:00:00,3.6467835903167725
1999-09-28 23:00:00,3.4162399768829346
1999-09-29 23:00:00,3.531510829925537
1999-09-30 23:00:00,3.5629491806030273
1999-10-01 23:00:00,3.5629491806030273
1999-10-04 23:00:00,3.583909511566162
1999-10-05 23:00:00,3.5210325717926025
1999-10-06 23:00:00,3.468637228012085
1999-10-07 23:00:00,3.594388246536255
1999-10-08 23:00:00,3.426720142364502
1999-10-11 23:00:00,3.5210325717926025
1999-10-12 23:00:00,3.6467835903167725
1999-10-13 23:00:00,3.5154035091400146
1999-10-14 23:00:00,3.546884298324585
1999-10-15 23:00:00,3.3579955101013184
1999-10-18 23:00:00,3.378983497619629
1999-10-19 23:00:00,3.546884298324585
1999-10-20 23:00:00,3.725278377532959
1999-10-21 23:00:00,3.588859796524048
1999-10-22 23:00:00,3.7462639808654785
1999-10-25 23:00:00,3.62034010887146
1999-10-26 23:00:00,3.546884298324585
1999-10-27 23:00:00,3.546884298324585
1999-10-28 23:00:00,3.4524409770965576
1999-10-29 23:00:00,3.4944145679473877
1999-11-01 23:00:00,3.5258960723876953
1999-11-02 23:00:00,3.232069969177246
1999-11-03 23:00:00,3.305528402328491
1999-11-04 23:00:00,3.179603099822998
1999-11-05 23:00:00,3.074664354324341
1999-11-08 23:00:00,3.1481223106384277
1999-11-09 23:00:00,3.253061056137085
1999-11-10 23:00:00,3.316021203994751
1999-11-11 23:00:00,3.253061056137085
1999-11-12 23:00:00,3.295034646987915
1999-11-15 23:00:00,3.378983497619629
1999-11-16 23:00:00,3.263552188873291
1999-11-17 23:00:00,3.504908561706543
1999-11-18 23:00:00,3.4209582805633545
1999-11-19 23:00:00,3.295034646987915
1999-11-22 23:00:00,3.263552188873291
1999-11-23 23:00:00,3.232069969177246
1999-11-24 23:00:00,3.316021203994751
1999-11-26 23:00:00,3.316021203994751
1999-11-29 23:00:00,3.1481223106384277
1999-11-30 23:00:00,3.1061465740203857
1999-12-01 23:00:00,3.137626886367798
1999-12-02 23:00:00,3.001208543777466
1999-12-03 23:00:00,2.9172606468200684
1999-12-06 23:00:00,2.7703471183776855
1999-12-07 23:00:00,2.5394845008850098
1999-12-08 23:00:00,2.6234350204467773
1999-12-09 23:00:00,2.6549148559570312
1999-12-10 23:00:00,2.6234350204467773
1999-12-13 23:00:00,2.686397075653076
1999-12-14 23:00:00,2.665409564971924
1999-12-15 23:00:00,2.7073848247528076
1999-12-16 23:00:00,2.8438031673431396
1999-12-17 23:00:00,2.885777473449707
1999-12-20 23:00:00,2.864790201187134
1999-12-21 23:00:00,2.854297399520874
1999-12-22 23:00:00,2.82281494140625
1999-12-23 23:00:00,2.864790201187134
1999-12-27 23:00:00,2.7703471183776855
1999-12-28 23:00:00,2.854297399520874
1999-12-29 23:00:00,2.906766414642334
1999-12-30 23:00:00,2.864790201187134
1999-12-31 23:00:00,2.9487407207489014
2000-01-03 23:00:00,2.6024460792541504
2000-01-04 23:00:00,2.6024460792541504
2000-01-05 23:00:00,2.5289909839630127
2000-01-06 23:00:00,2.7388663291931152
2000-01-07 23:00:00,2.7073848247528076
2000-01-10 23:00:00,2.728372097015381
2000-01-11 23:00:00,2.749359607696533
2000-01-12 23:00:00,2.7544057369232178
2000-01-13 23:00:00,2.8069705963134766
2000-01-14 23:00:00,2.8595359325408936
2000-01-18 23:00:00,2.870048761367798
2000-01-19 23:00:00,2.8805618286132812
2000-01-20 23:00:00,2.8174831867218018
2000-01-21 23:00:00,2.73337984085083
2000-01-24 23:00:00,2.670300245285034
2000-01-25 23:00:00,2.628249406814575
2000-01-26 23:00:00,2.659788131713867
2000-01-27 23:00:00,2.596710443496704
2000-01-28 23:00:00,2.565171480178833
2000-01-31 23:00:00,2.670300245285034
2000-02-01 23:00:00,2.691328287124634
2000-02-02 23:00:00,2.7754321098327637
2000-02-03 23:00:00,2.712353467941284
2000-02-04 23:00:00,2.638763427734375
2000-02-07 23:00:00,2.617736577987671
2000-02-08 23:00:00,2.6072230339050293
2000-02-09 23:00:00,2.53363299369812
2000-02-10 23:00:00,2.670300245285034
2000-02-11 23:00:00,2.628249406814575
2000-02-14 23:00:00,2.6492764949798584
2000-02-15 23:00:00,2.73337984085083
2000-02-16 23:00:00,2.680814504623413
2000-02-17 23:00:00,2.7228665351867676
2000-02-18 23:00:00,2.638763427734375
2000-02-22 23:00:00,2.6072230339050293
2000-02-23 23:00:00,2.4810681343078613
2000-02-24 23:00:00,2.354912281036377
2000-02-25 23:00:00,2.3338873386383057
2000-02-28 23:00:00,2.3864502906799316
2000-02-29 23:00:00,2.565171480178833
2000-03-01 23:00:00,2.628249406814575
2000-03-02 23:00:00,2.985691547393799
2000-03-03 23:00:00,2.9121012687683105
2000-03-06 23:00:00,2.922614336013794
2000-03-07 23:00:00,3.143385887145996
2000-03-08 23:00:00,3.174926519393921
2000-03-09 23:00:00,3.153900623321533
2000-03-10 23:00:00,3.1223623752593994
2000-03-13 23:00:00,3.069795846939087
2000-03-14 23:00:00,3.111847162246704
2000-03-15 23:00:00,3.0803089141845703
2000-03-16 23:00:00,3.153900623321533
2000-03-17 23:00:00,3.111847162246704
2000-03-20 23:00:00,3.090820789337158
2000-03-21 23:00:00,3.143385887145996
2000-03-22 23:00:00,3.185438871383667
2000-03-23 23:00:00,3.1959521770477295
2000-03-24 23:00:00,3.101335287094116
2000-03-27 23:00:00,3.101335287094116
2000-03-28 23:00:00,3.2485158443450928
2000-03-29 23:00:00,3.5481374263763428
2000-03-30 23:00:00,3.868781566619873
2000-03-31 23:00:00,3.5639073848724365
2000-04-03 23:00:00,3.910836696624756
2000-04-04 23:00:00,3.8162171840667725
2000-04-05 23:00:00,3.7531421184539795
2000-04-06 23:00:00,3.910836696624756
2000-04-07 23:00:00,3.973912477493286
2000-04-10 23:00:00,3.784679412841797
2000-04-11 23:00:00,3.9423739910125732
2000-04-12 23:00:00,4.094797611236572
2000-04-13 23:00:00,4.126378059387207
2000-04-14 23:00:00,3.9158480167388916
2000-04-17 23:00:00,3.863215208053589
2000-04-18 23:00:00,4.000059604644775
2000-04-19 23:00:00,3.9053196907043457
2000-04-20 23:00:00,4.010585308074951
2000-04-24 23:00:00,3.9158480167388916
2000-04-25 23:00:00,3.9790077209472656
2000-04-26 23:00:00,3.9790077209472656
2000-04-27 23:00:00,4.042165756225586
2000-04-28 23:00:00,4.189535140991211
2000-05-01 23:00:00,4.357959747314453
2000-05-02 23:00:00,4.526381969451904
2000-05-03 23:00:00,4.421117305755615
2000-05-04 23:00:00,4.6632256507873535
2000-05-05 23:00:00,4.789542198181152
2000-05-08 23:00:00,4.884283542633057
2000-05-09 23:00:00,4.810598373413086
2000-05-10 23:00:00,4.842177391052246
2000-05-11 23:00:00,4.957967281341553
2000-05-12 23:00:00,5.000075340270996
2000-05-15 23:00:00,4.968496799468994
2000-05-16 23:00:00,4.715859413146973
2000-05-17 23:00:00,5.031653881072998
2000-05-18 23:00:00,5.136918544769287
2000-05-19 23:00:00,5.231658935546875
2000-05-22 23:00:00,5.25270938873291
2000-05-23 23:00:00,5.24218225479126
2000-05-24 23:00:00,5.189551830291748
2000-05-25 23:00:00,5.094811916351318
2000-05-26 23:00:00,5.052704811096191
2000-05-30 23:00:00,5.24218225479126
2000-05-31 23:00:00,5.473768711090088
2000-06-01 23:00:00,5.400081157684326
2000-06-02 23:00:00,5.136918544769287
2000-06-05 23:00:00,5.08428430557251
2000-06-06 23:00:00,5.2842912673950195
2000-06-07 23:00:00,5.263237953186035
2000-06-08 23:00:00,5.421131610870361
2000-06-09 23:00:00,5.336921691894531
2000-06-12 23:00:00,5.484292030334473
2000-06-13 23:00:00,5.600083351135254
2000-06-14 23:00:00,5.642185688018799
2000-06-15 23:00:00,5.600083351135254
2000-06-16 23:00:00,5.831665515899658
2000-06-19 23:00:00,5.755350112915039
2000-06-20 23:00:00,5.652715682983398
2000-06-21 23:00:00,5.663243293762207
2000-06-22 23:00:00,5.442187309265137
2000-06-23 23:00:00,5.568502426147461
2000-06-26 23:00:00,5.473768711090088
2000-06-27 23:00:00,5.547451972961426
2000-06-28 23:00:00,5.631662368774414
2000-06-29 23:00:00,5.684294700622559
2000-06-30 23:00:00,5.626399040222168
2000-07-03 23:00:00,5.547451972961426
2000-07-05 23:00:00,4.9790215492248535
2000-07-06 23:00:00,4.842177391052246
2000-07-07 23:00:00,5.052704811096191
2000-07-10 23:00:00,5.115865707397461
2000-07-11 23:00:00,5.452714443206787
2000-07-12 23:00:00,5.294814586639404
2000-07-13 23:00:00,5.385024547576904
2000-07-14 23:00:00,5.3112568855285645
2000-07-17 23:00:00,5.121567249298096
2000-07-18 23:00:00,5.3112568855285645
2000-07-19 23:00:00,5.216411590576172
2000-07-20 23:00:00,4.88972806930542
2000-07-21 23:00:00,4.731655597686768
2000-07-24 23:00:00,4.605196475982666
2000-07-25 23:00:00,4.5525031089782715
2000-07-26 23:00:00,4.689504146575928
2000-07-27 23:00:00,4.974035263061523
2000-07-28 23:00:00,5.058338165283203
2000-07-31 23:00:00,4.984572410583496
2000-08-01 23:00:00,5.205872058868408
2000-08-02 23:00:00,5.395561695098877
2000-08-03 23:00:00,5.3112568855285645
2000-08-04 23:00:00,5.511481761932373
2000-08-07 23:00:00,5.556268692016602
2000-08-08 23:00:00,5.532558441162109
2000-08-09 23:00:00,5.58524751663208
2000-08-10 23:00:00,5.76439905166626
2000-08-11 23:00:00,5.774940013885498
2000-08-14 23:00:00,5.859242916107178
2000-08-15 23:00:00,5.9857025146484375
2000-08-16 23:00:00,5.94354772567749
2000-08-17 23:00:00,6.112158298492432
2000-08-18 23:00:00,6.091083526611328
2000-08-21 23:00:00,6.133235931396484
2000-08-22 23:00:00,6.1859283447265625
2000-08-23 23:00:00,6.365077495574951
2000-08-24 23:00:00,6.407227039337158
2000-08-25 23:00:00,6.396689414978027
2000-08-28 23:00:00,6.396689414978027
2000-08-29 23:00:00,6.565300464630127
2000-08-30 23:00:00,6.386153221130371
2000-08-31 23:00:00,6.449381351470947
2000-09-01 23:00:00,6.491532325744629
2000-09-05 23:00:00,6.491532325744629
2000-09-06 23:00:00,6.617992401123047
2000-09-07 23:00:00,6.628531455993652
2000-09-08 23:00:00,6.533687591552734
2000-09-11 23:00:00,6.69175910949707
2000-09-12 23:00:00,6.786602973937988
2000-09-13 23:00:00,6.617992401123047
2000-09-14 23:00:00,6.681221008300781
2000-09-15 23:00:00,6.660141944885254
2000-09-18 23:00:00,6.73654842376709
2000-09-19 23:00:00,6.544224739074707
2000-09-20 23:00:00,6.69175910949707
2000-09-21 23:00:00,6.449381351470947
2000-09-22 23:00:00,6.407227039337158
2000-09-25 23:00:00,6.270231246948242
2000-09-26 23:00:00,6.565300464630127
2000-09-27 23:00:00,6.660141944885254
2000-09-28 23:00:00,6.5758376121521
2000-09-29 23:00:00,6.554765224456787
2000-10-02 23:00:00,6.69175910949707
2000-10-03 23:00:00,6.660141944885254
2000-10-04 23:00:00,6.344001770019531
2000-10-05 23:00:00,6.228082656860352
2000-10-06 23:00:00,6.396689414978027
2000-10-09 23:00:00,6.386153221130371
2000-10-10 23:00:00,6.83929443359375
2000-10-11 23:00:00,7.123828411102295
2000-10-12 23:00:00,7.1027512550354
2000-10-13 23:00:00,7.013735771179199
2000-10-16 23:00:00,6.8977179527282715
2000-10-17 23:00:00,7.171938896179199
2000-10-18 23:00:00,7.129754543304443
2000-10-19 23:00:00,7.119201183319092
2000-10-20 23:00:00,7.33014440536499
2000-10-23 23:00:00,7.245772361755371
2000-10-24 23:00:00,6.750060558319092
2000-10-25 23:00:00,6.212164402008057
2000-10-26 23:00:00,6.391462802886963
2000-10-27 23:00:00,6.454744338989258
2000-10-30 23:00:00,6.518024921417236
2000-10-31 23:00:00,6.644589424133301
2000-11-01 23:00:00,7.108654975891113
2000-11-02 23:00:00,6.929359436035156
2000-11-03 23:00:00,6.834435939788818
2000-11-06 23:00:00,6.728964328765869
2000-11-07 23:00:00,6.728964328765869
2000-11-08 23:00:00,6.8977179527282715
2000-11-09 23:00:00,6.69732141494751
2000-11-10 23:00:00,6.728964328765869
2000-11-13 23:00:00,6.570763111114502
2000-11-14 23:00:00,6.79224967956543
2000-11-15 23:00:00,7.382876396179199
2000-11-16 23:00:00,7.498894214630127
2000-11-17 23:00:00,7.361785888671875
2000-11-20 23:00:00,7.129754543304443
2000-11-21 23:00:00,7.414521217346191
2000-11-22 23:00:00,7.425065517425537
2000-11-24 23:00:00,7.678194522857666
2000-11-27 23:00:00,7.72037935256958
2000-11-28 23:00:00,7.6360039710998535
2000-11-29 23:00:00,7.224673271179199
2000-11-30 23:00:00,7.161392688751221
2000-12-01 23:00:00,7.498894214630127
2000-12-04 23:00:00,7.762570858001709
2000-12-05 23:00:00,7.7731170654296875
2000-12-06 23:00:00,8.03679084777832
2000-12-07 23:00:00,7.66764497756958
2000-12-08 23:00:00,7.6992878913879395
2000-12-11 23:00:00,8.015698432922363
2000-12-12 23:00:00,8.152812004089355
2000-12-13 23:00:00,8.25827693939209
2000-12-14 23:00:00,7.962960243225098
2000-12-15 23:00:00,8.03679084777832
2000-12-18 23:00:00,8.35319709777832
2000-12-19 23:00:00,8.511404991149902
2000-12-20 23:00:00,8.458671569824219
2000-12-21 23:00:00,8.711796760559082
2000-12-22 23:00:00,8.775075912475586
2000-12-26 23:00:00,9.37625503540039
2000-12-27 23:00:00,9.460628509521484
2000-12-28 23:00:00,9.52391529083252
2000-12-29 23:00:00,9.21805191040039
2001-01-02 23:00:00,9.038750648498535
2001-01-03 23:00:00,8.268821716308594
2001-01-04 23:00:00,7.825852870941162
2001-01-05 23:00:00,8.068429946899414
2001-01-08 23:00:00,8.28991413116455
2001-01-09 23:00:00,8.16335678100586
2001-01-10 23:00:00,8.21608829498291
2001-01-11 23:00:00,8.03679084777832
2001-01-12 23:00:00,7.905486106872559
2001-01-16 23:00:00,8.095475196838379
2001-01-17 23:00:00,7.546626567840576
2001-01-18 23:00:00,7.346090316772461
2001-01-19 23:00:00,7.472743988037109
2001-01-22 23:00:00,7.599400997161865
2001-01-23 23:00:00,7.768279552459717
2001-01-24 23:00:00,7.768279552459717
2001-01-25 23:00:00,7.98992395401001
2001-01-26 23:00:00,7.916043758392334
2001-01-29 23:00:00,7.663578033447266
2001-01-30 23:00:00,7.514964580535889
2001-01-31 23:00:00,7.386616230010986
2001-02-01 23:00:00,7.303868770599365
2001-02-02 23:00:00,7.675395965576172
2001-02-05 23:00:00,7.64162015914917
2001-02-06 23:00:00,7.786854267120361
2001-02-07 23:00:00,7.997945785522461
2001-02-08 23:00:00,7.785166263580322
2001-02-09 23:00:00,8.016524314880371
2001-02-12 23:00:00,7.864538669586182
2001-02-13 23:00:00,7.964171409606934
2001-02-14 23:00:00,7.948976516723633
2001-02-15 23:00:00,7.650060653686523
2001-02-16 23:00:00,7.775031566619873
2001-02-20 23:00:00,7.741260528564453
2001-02-21 23:00:00,7.548740863800049
2001-02-22 23:00:00,7.447412490844727
2001-02-23 23:00:00,7.361289024353027
2001-02-26 23:00:00,7.477810859680176
2001-02-27 23:00:00,7.493011951446533
2001-02-28 23:00:00,7.36297607421875
2001-03-01 23:00:00,7.36973237991333
2001-03-02 23:00:00,7.616291522979736
2001-03-05 23:00:00,7.7209954261779785
2001-03-06 23:00:00,7.827385902404785
2001-03-07 23:00:00,8.237751960754395
2001-03-08 23:00:00,8.48599624633789
2001-03-09 23:00:00,8.513022422790527
2001-03-12 23:00:00,8.02159309387207
2001-03-13 23:00:00,7.923640251159668
2001-03-14 23:00:00,7.692280292510986
2001-03-15 23:00:00,7.563937187194824
2001-03-16 23:00:00,7.56562614440918
2001-03-19 23:00:00,7.712549209594727
2001-03-20 23:00:00,7.8864898681640625
2001-03-21 23:00:00,7.447412490844727
2001-03-22 23:00:00,7.234630584716797
2001-03-23 23:00:00,7.342713356018066
2001-03-26 23:00:00,7.3342671394348145
2001-03-27 23:00:00,7.150195598602295
2001-03-28 23:00:00,7.082643508911133
2001-03-29 23:00:00,6.770225524902344
2001-03-30 23:00:00,6.962744235992432
2001-04-02 23:00:00,6.697606563568115
2001-04-03 23:00:00,6.398697853088379
2001-04-04 23:00:00,6.609790325164795
2001-04-05 23:00:00,6.810754299163818
2001-04-06 23:00:00,6.814132213592529
2001-04-09 23:00:00,7.092774868011475
2001-04-10 23:00:00,7.2565813064575195
2001-04-11 23:00:00,7.207563400268555
2001-04-12 23:00:00,7.329270839691162
2001-04-16 23:00:00,7.540556907653809
2001-04-17 23:00:00,7.658881664276123
2001-04-18 23:00:00,7.520275592803955
2001-04-19 23:00:00,7.312368392944336
2001-04-20 23:00:00,7.3867411613464355
2001-04-23 23:00:00,7.927649021148682
2001-04-24 23:00:00,7.885385990142822
2001-04-25 23:00:00,8.061182022094727
2001-04-26 23:00:00,8.08484935760498
2001-04-27 23:00:00,7.9952569007873535
2001-04-30 23:00:00,7.841438293457031
2001-05-01 23:00:00,7.6825480461120605
2001-05-02 23:00:00,7.173758506774902
2001-05-03 23:00:00,7.117980003356934
2001-05-04 23:00:00,7.374906539916992
2001-05-07 23:00:00,7.378288269042969
2001-05-08 23:00:00,7.437449932098389
2001-05-09 23:00:00,7.640292644500732
2001-05-10 23:00:00,7.535488128662109
2001-05-11 23:00:00,7.506755828857422
2001-05-14 23:00:00,7.6825480461120605
2001-05-15 23:00:00,7.971592426300049
2001-05-16 23:00:00,7.991879940032959
2001-05-17 23:00:00,8.128793716430664
2001-05-18 23:00:00,8.319802284240723
2001-05-21 23:00:00,8.414454460144043
2001-05-22 23:00:00,8.346850395202637
2001-05-23 23:00:00,7.905674934387207
2001-05-24 23:00:00,7.773825168609619
2001-05-25 23:00:00,7.687622547149658
2001-05-29 23:00:00,7.626766681671143
2001-05-30 23:00:00,7.606482028961182
2001-05-31 23:00:00,7.587890148162842
2001-06-01 23:00:00,7.606482028961182
2001-06-04 23:00:00,7.712972164154053
2001-06-05 23:00:00,7.614936351776123
2001-06-06 23:00:00,7.058813571929932
2001-06-07 23:00:00,6.957397937774658
2001-06-08 23:00:00,6.9861345291137695
2001-06-11 23:00:00,7.079102993011475
2001-06-12 23:00:00,7.2261576652526855
2001-06-13 23:00:00,7.028391361236572
2001-06-14 23:00:00,6.8999247550964355
2001-06-15 23:00:00,6.883025169372559
2001-06-18 23:00:00,6.6768012046813965
2001-06-19 23:00:00,6.739343643188477
2001-06-20 23:00:00,6.610882759094238
2001-06-21 23:00:00,6.245769023895264
2001-06-22 23:00:00,6.426636219024658
2001-06-25 23:00:00,6.343803405761719
2001-06-26 23:00:00,6.416489124298096
2001-06-27 23:00:00,6.205201625823975
2001-06-28 23:00:00,5.939816474914551
2001-06-29 23:00:00,6.009123802185059
2001-07-02 23:00:00,5.89249324798584
2001-07-03 23:00:00,5.980382919311523
2001-07-05 23:00:00,6.093638896942139
2001-07-06 23:00:00,6.22041130065918
2001-07-09 23:00:00,5.983767986297607
2001-07-10 23:00:00,5.909390926361084
2001-07-11 23:00:00,5.704862594604492
2001-07-12 23:00:00,5.62203311920166
2001-07-13 23:00:00,5.752349376678467
2001-07-16 23:00:00,5.518801689147949
2001-07-17 23:00:00,5.385106086730957
2001-07-18 23:00:00,5.302180767059326
2001-07-19 23:00:00,5.325873374938965
2001-07-20 23:00:00,5.435875415802002
2001-07-23 23:00:00,5.432490348815918
2001-07-24 23:00:00,5.226021766662598
2001-07-25 23:00:00,5.732038497924805
2001-07-26 23:00:00,5.838657855987549
2001-07-27 23:00:00,6.158515453338623
2001-07-30 23:00:00,5.990973949432373
2001-07-31 23:00:00,5.982509136199951
2001-08-01 23:00:00,5.855581283569336
2001-08-02 23:00:00,5.957126617431641
2001-08-03 23:00:00,5.8166608810424805
2001-08-06 23:00:00,5.740501880645752
2001-08-07 23:00:00,5.6880364418029785
2001-08-08 23:00:00,5.444339275360107
2001-08-09 23:00:00,5.440953731536865
2001-08-10 23:00:00,5.5018792152404785
2001-08-13 23:00:00,5.537418842315674
2001-08-14 23:00:00,5.669425010681152
2001-08-15 23:00:00,6.126363754272461
2001-08-16 23:00:00,6.106053829193115
2001-08-17 23:00:00,5.9672770500183105
2001-08-20 23:00:00,5.779426097869873
2001-08-21 23:00:00,5.770962715148926
2001-08-22 23:00:00,5.704962730407715
2001-08-23 23:00:00,5.630499362945557
2001-08-24 23:00:00,5.540804862976074
2001-08-27 23:00:00,5.503571510314941
2001-08-28 23:00:00,5.439260005950928
2001-08-29 23:00:00,5.449416160583496
2001-08-30 23:00:00,5.344488620758057
2001-08-31 23:00:00,5.351256847381592
2001-09-04 23:00:00,5.500186443328857
2001-09-05 23:00:00,5.373259544372559
2001-09-06 23:00:00,5.513724327087402
2001-09-07 23:00:00,5.52895450592041
2001-09-10 23:00:00,5.539109230041504
2001-09-17 23:00:00,5.2074055671691895
2001-09-18 23:00:00,4.90616512298584
2001-09-19 23:00:00,4.753852367401123
2001-09-20 23:00:00,4.720005035400391
2001-09-21 23:00:00,4.804625511169434
2001-09-24 23:00:00,4.594771862030029
2001-09-25 23:00:00,4.513537883758545
2001-09-26 23:00:00,4.508459568023682
2001-09-27 23:00:00,4.620155334472656
2001-09-28 23:00:00,4.896012783050537
2001-10-01 23:00:00,4.779239654541016
2001-10-02 23:00:00,4.890936851501465
2001-10-03 23:00:00,4.999244689941406
2001-10-04 23:00:00,5.2666401863098145
2001-10-05 23:00:00,5.325873374938965
2001-10-08 23:00:00,5.418953895568848
2001-10-09 23:00:00,5.440953731536865
2001-10-10 23:00:00,5.7540411949157715
2001-10-11 23:00:00,5.7506561279296875
2001-10-12 23:00:00,5.755733966827393
2001-10-15 23:00:00,5.574436187744141
2001-10-16 23:00:00,5.776065826416016
2001-10-17 23:00:00,5.759124279022217
2001-10-18 23:00:00,5.620184421539307
2001-10-19 23:00:00,5.760814666748047
2001-10-22 23:00:00,5.826897621154785
2001-10-23 23:00:00,5.811649799346924
2001-10-24 23:00:00,5.9116129875183105
2001-10-25 23:00:00,6.250486850738525
2001-10-26 23:00:00,6.3877272605896
2001-10-29 23:00:00,6.423309326171875
2001-10-30 23:00:00,6.02852725982666
2001-10-31 23:00:00,5.992940902709961
2001-11-01 23:00:00,6.094606399536133
2001-11-02 23:00:00,5.859086990356445
2001-11-05 23:00:00,5.732010364532471
2001-11-06 23:00:00,5.770981788635254
2001-11-07 23:00:00,5.977693557739258
2001-11-08 23:00:00,5.9861650466918945
2001-11-09 23:00:00,6.203042030334473
2001-11-12 23:00:00,6.1166300773620605
2001-11-13 23:00:00,6.113242149353027
2001-11-14 23:00:00,5.762513160705566
2001-11-15 23:00:00,5.386362075805664
2001-11-16 23:00:00,5.545633792877197
2001-11-19 23:00:00,5.549023628234863
2001-11-20 23:00:00,5.835368633270264
2001-11-21 23:00:00,5.815035343170166
2001-11-23 23:00:00,5.95397424697876
2001-11-26 23:00:00,5.8624796867370605
2001-11-27 23:00:00,5.859086990356445
2001-11-28 23:00:00,5.823507785797119
2001-11-29 23:00:00,5.96074914932251
2001-11-30 23:00:00,5.926863670349121
2001-12-03 23:00:00,6.103076934814453
2001-12-04 23:00:00,6.308093547821045
2001-12-05 23:00:00,6.626633644104004
2001-12-06 23:00:00,6.540221214294434
2001-12-07 23:00:00,6.465668678283691
2001-12-10 23:00:00,6.3301191329956055
2001-12-11 23:00:00,6.167462348937988
2001-12-12 23:00:00,6.043773651123047
2001-12-13 23:00:00,5.967529296875
2001-12-14 23:00:00,6.120023250579834
2001-12-17 23:00:00,6.065799713134766
2001-12-18 23:00:00,6.216598987579346
2001-12-19 23:00:00,6.36909294128418
2001-12-20 23:00:00,6.303011417388916
2001-12-21 23:00:00,6.355535507202148
2001-12-24 23:00:00,6.423309326171875
2001-12-26 23:00:00,6.607991695404053
2001-12-27 23:00:00,6.602915287017822
2001-12-28 23:00:00,6.650354385375977
2001-12-31 23:00:00,6.626633644104004
2002-01-02 23:00:00,6.453807830810547
2002-01-03 23:00:00,6.328426361083984
2002-01-04 23:00:00,6.402976036071777
2002-01-07 23:00:00,6.458890438079834
2002-01-08 23:00:00,6.3928117752075195
2002-01-09 23:00:00,6.353838920593262
2002-01-10 23:00:00,6.289456367492676
2002-01-11 23:00:00,6.036994934082031
2002-01-14 23:00:00,5.8624796867370605
2002-01-15 23:00:00,5.954077243804932
2002-01-16 23:00:00,5.8268537521362305
2002-01-17 23:00:00,5.6996307373046875
2002-01-18 23:00:00,5.555446147918701
2002-01-22 23:00:00,5.546962261199951
2002-01-23 23:00:00,5.6945390701293945
2002-01-24 23:00:00,5.791234970092773
2002-01-25 23:00:00,5.813284873962402
2002-01-28 23:00:00,5.626690864562988
2002-01-29 23:00:00,5.418042182922363
2002-01-30 23:00:00,5.580887794494629
2002-01-31 23:00:00,5.765788555145264
2002-02-01 23:00:00,5.643651962280273
2002-02-04 23:00:00,5.599547863006592
2002-02-05 23:00:00,5.570711612701416
2002-02-06 23:00:00,5.545267105102539
2002-02-07 23:00:00,5.394293308258057
2002-02-08 23:00:00,5.460450172424316
2002-02-11 23:00:00,5.609726905822754
2002-02-12 23:00:00,5.496072769165039
2002-02-13 23:00:00,5.518126010894775
2002-02-14 23:00:00,5.594457626342773
2002-02-15 23:00:00,5.538480281829834
2002-02-19 23:00:00,5.567318439483643
2002-02-20 23:00:00,5.502859592437744
2002-02-21 23:00:00,5.6504387855529785
2002-02-22 23:00:00,5.770876407623291
2002-02-25 23:00:00,5.916762351989746
2002-02-26 23:00:00,5.872656345367432
2002-02-27 23:00:00,5.852300643920898
2002-02-28 23:00:00,5.969343662261963
2002-03-01 23:00:00,5.962559700012207
2002-03-04 23:00:00,6.055859088897705
2002-03-05 23:00:00,6.091481685638428
2002-03-06 23:00:00,6.437528610229492
2002-03-07 23:00:00,6.613945960998535
2002-03-08 23:00:00,6.608856201171875
2002-03-11 23:00:00,6.698765277862549
2002-03-12 23:00:00,6.708940505981445
2002-03-13 23:00:00,6.756434440612793
2002-03-14 23:00:00,6.675014495849609
2002-03-15 23:00:00,6.658050060272217
2002-03-18 23:00:00,6.764919757843018
2002-03-19 23:00:00,6.915893077850342
2002-03-20 23:00:00,6.85821533203125
2002-03-21 23:00:00,6.980351448059082
2002-03-22 23:00:00,6.812418460845947
2002-03-25 23:00:00,6.764919757843018
2002-03-26 23:00:00,6.666532039642334
2002-03-27 23:00:00,6.898930072784424
2002-03-28 23:00:00,6.8802690505981445
2002-04-01 23:00:00,7.021061420440674
2002-04-02 23:00:00,7.180518627166748
2002-04-03 23:00:00,6.973569869995117
2002-04-04 23:00:00,6.736082077026367
2002-04-05 23:00:00,6.658050060272217
2002-04-08 23:00:00,6.824291229248047
2002-04-09 23:00:00,6.620733737945557
2002-04-10 23:00:00,6.803937911987305
2002-04-11 23:00:00,6.790364742279053
2002-04-12 23:00:00,6.457554340362549
2002-04-15 23:00:00,6.610376358032227
2002-04-16 23:00:00,6.5967912673950195
2002-04-17 23:00:00,6.815837383270264
2002-04-18 23:00:00,6.902430534362793
2002-04-19 23:00:00,7.01450252532959
2002-04-22 23:00:00,7.019596576690674
2002-04-23 23:00:00,7.080725193023682
2002-04-24 23:00:00,6.963561534881592
2002-04-25 23:00:00,7.09260892868042
2002-04-26 23:00:00,7.153739929199219
2002-04-29 23:00:00,7.1503448486328125
2002-04-30 23:00:00,7.225056171417236
2002-05-01 23:00:00,7.226757049560547
2002-05-02 23:00:00,7.335424900054932
2002-05-03 23:00:00,7.432211399078369
2002-05-06 23:00:00,7.16902494430542
2002-05-07 23:00:00,7.1961870193481445
2002-05-08 23:00:00,7.379573345184326
2002-05-09 23:00:00,7.25222110748291
2002-05-10 23:00:00,7.25901460647583
2002-05-13 23:00:00,7.410144805908203
2002-05-14 23:00:00,7.420328140258789
2002-05-15 23:00:00,7.235247611999512
2002-05-16 23:00:00,7.350708484649658
2002-05-17 23:00:00,7.199585437774658
2002-05-20 23:00:00,7.250528335571289
2002-05-21 23:00:00,7.218264579772949
2002-05-22 23:00:00,7.303165912628174
2002-05-23 23:00:00,7.325239181518555
2002-05-24 23:00:00,7.157134056091309
2002-05-28 23:00:00,7.101097583770752
2002-05-29 23:00:00,7.104495525360107
2002-05-30 23:00:00,6.912624359130859
2002-05-31 23:00:00,6.9618635177612305
2002-06-03 23:00:00,6.8107428550720215
2002-06-04 23:00:00,6.761497974395752
2002-06-05 23:00:00,6.717350482940674
2002-06-06 23:00:00,6.666408061981201
2002-06-07 23:00:00,6.75640344619751
2002-06-10 23:00:00,6.525474548339844
2002-06-11 23:00:00,6.413406848907471
2002-06-12 23:00:00,6.4269914627075195
2002-06-13 23:00:00,6.460948944091797
2002-06-14 23:00:00,6.508493423461914
2002-06-17 23:00:00,6.6579179763793945
2002-06-18 23:00:00,6.647730827331543
2002-06-19 23:00:00,6.629055976867676
2002-06-20 23:00:00,6.618863582611084
2002-06-21 23:00:00,6.584903240203857
2002-06-24 23:00:00,6.63923978805542
2002-06-25 23:00:00,6.642635822296143
2002-06-26 23:00:00,6.676595211029053
2002-06-27 23:00:00,6.651124954223633
2002-06-28 23:00:00,6.7411208152771
2002-07-01 23:00:00,6.571319580078125
2002-07-02 23:00:00,6.39642333984375
2002-07-03 23:00:00,6.420195579528809
2002-07-05 23:00:00,6.535661220550537
2002-07-08 23:00:00,6.350579261779785
2002-07-09 23:00:00,6.280956745147705
2002-07-10 23:00:00,6.106065273284912
2002-07-11 23:00:00,6.021163463592529
2002-07-12 23:00:00,5.980411052703857
2002-07-15 23:00:00,6.009309768676758
2002-07-16 23:00:00,5.975310802459717
2002-07-17 23:00:00,5.9736127853393555
2002-07-18 23:00:00,5.92941427230835
2002-07-19 23:00:00,5.769618034362793
2002-07-22 23:00:00,5.376932621002197
2002-07-23 23:00:00,5.257935047149658
2002-07-24 23:00:00,5.575822830200195
2002-07-25 23:00:00,5.397329807281494
2002-07-26 23:00:00,5.51122522354126
2002-07-29 23:00:00,5.830816268920898
2002-07-30 23:00:00,5.835916042327881
2002-07-31 23:00:00,5.829117298126221
2002-08-01 23:00:00,5.652319431304932
2002-08-02 23:00:00,5.628520488739014
2002-08-05 23:00:00,5.429627895355225
2002-08-06 23:00:00,5.642121315002441
2002-08-07 23:00:00,5.722019195556641
2002-08-08 23:00:00,5.94301176071167
2002-08-09 23:00:00,6.036510944366455
2002-08-12 23:00:00,6.119805335998535
2002-08-13 23:00:00,5.863116264343262
2002-08-14 23:00:00,5.924314022064209
2002-08-15 23:00:00,6.077305316925049
2002-08-16 23:00:00,5.9668097496032715
2002-08-19 23:00:00,5.992310047149658
2002-08-20 23:00:00,5.861415863037109
2002-08-21 23:00:00,5.909011363983154
2002-08-22 23:00:00,6.0637054443359375
2002-08-23 23:00:00,5.963411808013916
2002-08-26 23:00:00,6.038207530975342
2002-08-27 23:00:00,6.102809906005859
2002-08-28 23:00:00,5.948111057281494
2002-08-29 23:00:00,5.8240156173706055
2002-08-30 23:00:00,5.922611713409424
2002-09-03 23:00:00,5.703319072723389
2002-09-04 23:00:00,5.728819847106934
2002-09-05 23:00:00,5.788315773010254
2002-09-06 23:00:00,5.8988142013549805
2002-09-09 23:00:00,5.873314380645752
2002-09-10 23:00:00,6.009309768676758
2002-09-11 23:00:00,6.055209159851074
2002-09-12 23:00:00,5.961711883544922
2002-09-13 23:00:00,5.987209796905518
2002-09-16 23:00:00,6.062008857727051
2002-09-17 23:00:00,5.914113521575928
2002-09-18 23:00:00,5.98891019821167
2002-09-19 23:00:00,5.817217826843262
2002-09-20 23:00:00,5.783217430114746
2002-09-23 23:00:00,5.810414791107178
2002-09-24 23:00:00,5.630221366882324
2002-09-25 23:00:00,5.873314380645752
2002-09-26 23:00:00,6.046710014343262
2002-09-27 23:00:00,6.065408229827881
2002-09-30 23:00:00,6.11300802230835
2002-10-01 23:00:00,6.13680362701416
2002-10-02 23:00:00,6.203105449676514
2002-10-03 23:00:00,6.082406997680664
2002-10-04 23:00:00,5.944713115692139
2002-10-07 23:00:00,5.8818159103393555
2002-10-08 23:00:00,5.80531644821167
2002-10-09 23:00:00,5.662520885467529
2002-10-10 23:00:00,5.665919303894043
2002-10-11 23:00:00,5.776417255401611
2002-10-14 23:00:00,6.082406997680664
2002-10-15 23:00:00,6.274718284606934
2002-10-16 23:00:00,6.179413318634033
2002-10-17 23:00:00,6.390444278717041
2002-10-18 23:00:00,6.353000640869141
2002-10-21 23:00:00,6.432991027832031
2002-10-22 23:00:00,6.335984706878662
2002-10-23 23:00:00,6.611682415008545
2002-10-24 23:00:00,6.512977600097656
2002-10-25 23:00:00,6.206645965576172
2002-10-28 23:00:00,6.233872890472412
2002-10-29 23:00:00,6.087514877319336
2002-10-30 23:00:00,6.347893714904785
2002-10-31 23:00:00,6.126653671264648
2002-11-01 23:00:00,6.4074625968933105
2002-11-04 23:00:00,6.446601390838623
2002-11-05 23:00:00,6.417672634124756
2002-11-06 23:00:00,6.470432281494141
2002-11-07 23:00:00,6.443199634552002
2002-11-08 23:00:00,6.380229473114014
2002-11-11 23:00:00,6.33258056640625
2002-11-12 23:00:00,6.278120517730713
2002-11-13 23:00:00,6.101128578186035
2002-11-14 23:00:00,6.410865783691406
2002-11-15 23:00:00,6.397250175476074
2002-11-18 23:00:00,6.460216522216797
2002-11-19 23:00:00,6.519783973693848
2002-11-20 23:00:00,6.790376663208008
2002-11-21 23:00:00,6.8686628341674805
2002-11-22 23:00:00,6.53169584274292
2002-11-25 23:00:00,6.577646255493164
2002-11-26 23:00:00,6.417672634124756
2002-11-27 23:00:00,6.514675140380859
2002-11-29 23:00:00,6.598065376281738
2002-12-02 23:00:00,6.652523517608643
2002-12-03 23:00:00,6.712090492248535
2002-12-04 23:00:00,6.615087985992432
2002-12-05 23:00:00,6.689968109130859
2002-12-06 23:00:00,6.783568859100342
2002-12-09 23:00:00,6.701879024505615
2002-12-10 23:00:00,6.834625244140625
2002-12-11 23:00:00,6.855047702789307
2002-12-12 23:00:00,7.060970783233643
2002-12-13 23:00:00,7.004809856414795
2002-12-16 23:00:00,7.042252063751221
2002-12-17 23:00:00,6.926523685455322
2002-12-18 23:00:00,6.785271644592285
2002-12-19 23:00:00,6.773356914520264
2002-12-20 23:00:00,7.043951034545898
2002-12-23 23:00:00,7.089900970458984
2002-12-24 23:00:00,7.030335903167725
2002-12-26 23:00:00,6.994598865509033
2002-12-27 23:00:00,6.829518795013428
2002-12-30 23:00:00,6.8159003257751465
2002-12-31 23:00:00,6.793781757354736
2003-01-02 23:00:00,7.004809856414795
2003-01-03 23:00:00,6.960561752319336
2003-01-06 23:00:00,6.926523685455322
2003-01-07 23:00:00,6.594662189483643
2003-01-08 23:00:00,6.574243545532227
2003-01-09 23:00:00,6.686563968658447
2003-01-10 23:00:00,6.623596668243408
2003-01-13 23:00:00,6.591258525848389
2003-01-14 23:00:00,6.625297546386719
2003-01-15 23:00:00,6.7445478439331055
2003-01-16 23:00:00,6.7445478439331055
2003-01-17 23:00:00,6.686631202697754
2003-01-21 23:00:00,6.536711692810059
2003-01-22 23:00:00,6.517973899841309
2003-01-23 23:00:00,6.524784564971924
2003-01-24 23:00:00,6.3714599609375
2003-01-27 23:00:00,6.132955551147461
2003-01-28 23:00:00,6.318648338317871
2003-01-29 23:00:00,6.541820049285889
2003-01-30 23:00:00,6.458341598510742
2003-01-31 23:00:00,6.603150844573975
2003-02-03 23:00:00,6.589521408081055
2003-02-04 23:00:00,6.795659065246582
2003-02-05 23:00:00,6.770101070404053
2003-02-06 23:00:00,6.72751522064209
2003-02-07 23:00:00,6.652554988861084
2003-02-10 23:00:00,6.7155866622924805
2003-02-11 23:00:00,6.690035343170166
2003-02-12 23:00:00,6.50093412399292
2003-02-13 23:00:00,6.550336837768555
2003-02-14 23:00:00,6.623593807220459
2003-02-18 23:00:00,6.7224016189575195
2003-02-19 23:00:00,6.773509979248047
2003-02-20 23:00:00,6.8484673500061035
2003-02-21 23:00:00,6.916613578796387
2003-02-24 23:00:00,7.100600242614746
2003-02-25 23:00:00,7.127859115600586
2003-02-26 23:00:00,7.1789679527282715
2003-02-27 23:00:00,7.069939136505127
2003-02-28 23:00:00,7.035862922668457
2003-03-03 23:00:00,6.967719078063965
2003-03-04 23:00:00,6.967719078063965
2003-03-05 23:00:00,7.083564758300781
2003-03-06 23:00:00,7.1295623779296875
2003-03-07 23:00:00,7.163633823394775
2003-03-10 23:00:00,7.204516887664795
2003-03-11 23:00:00,7.110823154449463
2003-03-12 23:00:00,6.9864606857299805
2003-03-13 23:00:00,6.875730037689209
2003-03-14 23:00:00,6.746250629425049
2003-03-17 23:00:00,6.730919361114502
2003-03-18 23:00:00,6.836544990539551
2003-03-19 23:00:00,6.826321125030518
2003-03-20 23:00:00,6.901278495788574
2003-03-21 23:00:00,6.686631202697754
2003-03-24 23:00:00,6.608260631561279
2003-03-25 23:00:00,6.713886737823486
2003-03-26 23:00:00,6.630404472351074
2003-03-27 23:00:00,6.739438056945801
2003-03-28 23:00:00,6.829728126525879
2003-03-31 23:00:00,6.739438056945801
2003-04-01 23:00:00,6.856986999511719
2003-04-02 23:00:00,6.724106311798096
2003-04-03 23:00:00,6.6167802810668945
2003-04-04 23:00:00,6.492416858673096
2003-04-07 23:00:00,6.408941268920898
2003-04-08 23:00:00,6.293095111846924
2003-04-09 23:00:00,6.3084259033203125
2003-04-10 23:00:00,6.563968658447266
2003-04-11 23:00:00,6.516265869140625
2003-04-14 23:00:00,6.531613349914551
2003-04-15 23:00:00,6.5401411056518555
2003-04-16 23:00:00,6.431000232696533
2003-04-17 23:00:00,6.599830627441406
2003-04-21 23:00:00,6.679981708526611
2003-04-22 23:00:00,6.749904155731201
2003-04-23 23:00:00,6.652696132659912
2003-04-24 23:00:00,6.548669815063477
2003-04-25 23:00:00,6.5111517906188965
2003-04-28 23:00:00,6.495800971984863
2003-04-29 23:00:00,6.260458946228027
2003-04-30 23:00:00,6.374719619750977
2003-05-01 23:00:00,6.313324928283691
2003-05-02 23:00:00,6.3610758781433105
2003-05-05 23:00:00,6.4412312507629395
2003-05-06 23:00:00,6.3678975105285645
2003-05-07 23:00:00,6.355960369110107
2003-05-08 23:00:00,6.350845813751221
2003-05-09 23:00:00,6.468515396118164
2003-05-12 23:00:00,6.581071376800537
2003-05-13 23:00:00,6.67486572265625
2003-05-14 23:00:00,6.737966060638428
2003-05-15 23:00:00,6.7959465980529785
2003-05-16 23:00:00,6.8437018394470215
2003-05-19 23:00:00,6.7874226570129395
2003-05-20 23:00:00,6.676575660705566
2003-05-21 23:00:00,7.010828971862793
2003-05-22 23:00:00,7.048346042633057
2003-05-23 23:00:00,7.164311408996582
2003-05-27 23:00:00,7.285395622253418
2003-05-28 23:00:00,7.235937595367432
2003-05-29 23:00:00,7.193304538726807
2003-05-30 23:00:00,7.3501973152160645
2003-06-02 23:00:00,7.416708469390869
2003-06-03 23:00:00,7.527559757232666
2003-06-04 23:00:00,7.493448257446289
2003-06-05 23:00:00,7.498568058013916
2003-06-06 23:00:00,7.450812339782715
2003-06-09 23:00:00,7.384307384490967
2003-06-10 23:00:00,7.394538402557373
2003-06-11 23:00:00,7.711739540100098
2003-06-12 23:00:00,7.46104621887207
2003-06-13 23:00:00,7.261519908905029
2003-06-16 23:00:00,7.154083251953125
2003-06-17 23:00:00,7.1199750900268555
2003-06-18 23:00:00,7.0466437339782715
2003-06-19 23:00:00,7.179662704467773
2003-06-20 23:00:00,7.104624271392822
2003-06-23 23:00:00,7.189894199371338
2003-06-24 23:00:00,7.128504753112793
2003-06-25 23:00:00,7.324615478515625
2003-06-26 23:00:00,7.159195423126221
2003-06-27 23:00:00,7.140437126159668
2003-06-30 23:00:00,7.13532018661499
2003-07-01 23:00:00,7.055167198181152
2003-07-02 23:00:00,6.986955642700195
2003-07-03 23:00:00,7.026177883148193
2003-07-07 23:00:00,6.865870952606201
2003-07-08 23:00:00,6.819826126098633
2003-07-09 23:00:00,6.89997673034668
2003-07-10 23:00:00,6.708976745605469
2003-07-11 23:00:00,6.736264228820801
2003-07-14 23:00:00,6.570839881896973
2003-07-15 23:00:00,6.54010009765625
2003-07-16 23:00:00,6.449600696563721
2003-07-17 23:00:00,6.651095390319824
2003-07-18 23:00:00,6.779166221618652
2003-07-21 23:00:00,6.736474990844727
2003-07-22 23:00:00,6.681832313537598
2003-07-23 23:00:00,6.622066020965576
2003-07-24 23:00:00,6.531564235687256
2003-07-25 23:00:00,6.659638404846191
2003-07-28 23:00:00,6.680120944976807
2003-07-29 23:00:00,6.524734973907471
2003-07-30 23:00:00,6.593040943145752
2003-07-31 23:00:00,6.622066020965576
2003-08-01 23:00:00,6.63572883605957
2003-08-04 23:00:00,6.509365081787109
2003-08-05 23:00:00,6.579379081726074
2003-08-06 23:00:00,6.659638404846191
2003-08-07 23:00:00,6.838932037353516
2003-08-08 23:00:00,6.772336006164551
2003-08-11 23:00:00,6.960170745849609
2003-08-12 23:00:00,7.127514839172363
