DATETIME,price
1981-08-26 23:00:00,0.9008115530014038
1981-08-27 23:00:00,0.9008115530014038
1981-08-28 23:00:00,0.9008115530014038
1981-08-31 23:00:00,0.8983566761016846
1981-09-01 23:00:00,0.9008115530014038
1981-09-02 23:00:00,0.9057208299636841
1981-09-03 23:00:00,0.8983566761016846
1981-09-04 23:00:00,0.8836294412612915
1981-09-08 23:00:00,0.8468117117881775
1981-09-09 23:00:00,0.8443573117256165
1981-09-10 23:00:00,0.8566303849220276
1981-09-11 23:00:00,0.8492664694786072
1981-09-14 23:00:00,0.8517209887504578
1981-09-15 23:00:00,0.8492664694786072
1981-09-16 23:00:00,0.8590839505195618
1981-09-17 23:00:00,0.8517209887504578
1981-09-18 23:00:00,0.8296302556991577
1981-09-21 23:00:00,0.8320844173431396
1981-09-22 23:00:00,0.8320844173431396
1981-09-23 23:00:00,0.8198119401931763
1981-09-24 23:00:00,0.8149027228355408
1981-09-25 23:00:00,0.7756307125091553
1981-09-28 23:00:00,0.8001757264137268
1981-09-29 23:00:00,0.8050850629806519
1981-09-30 23:00:00,0.7903577089309692
1981-10-01 23:00:00,0.7829943299293518
1981-10-02 23:00:00,0.7928125262260437
1981-10-05 23:00:00,0.7829943299293518
1981-10-06 23:00:00,0.765812337398529
1981-10-07 23:00:00,0.7609036564826965
1981-10-08 23:00:00,0.7707217335700989
1981-10-09 23:00:00,0.765812337398529
1981-10-12 23:00:00,0.765812337398529
1981-10-13 23:00:00,0.7633581161499023
1981-10-14 23:00:00,0.7609036564826965
1981-10-15 23:00:00,0.7633581161499023
1981-10-16 23:00:00,0.7633581161499023
1981-10-19 23:00:00,0.768267035484314
1981-10-20 23:00:00,0.751085102558136
1981-10-21 23:00:00,0.751085102558136
1981-10-22 23:00:00,0.7363580465316772
1981-10-23 23:00:00,0.7216306924819946
1981-10-26 23:00:00,0.7240852117538452
1981-10-27 23:00:00,0.7388125658035278
1981-10-28 23:00:00,0.7486303448677063
1981-10-29 23:00:00,0.7412672638893127
1981-10-30 23:00:00,0.751085102558136
1981-11-02 23:00:00,0.765812337398529
1981-11-03 23:00:00,0.7952665090560913
1981-11-04 23:00:00,0.7879029512405396
1981-11-05 23:00:00,0.8001757264137268
1981-11-06 23:00:00,0.8050850629806519
1981-11-09 23:00:00,0.8075395226478577
1981-11-10 23:00:00,0.8149027228355408
1981-11-11 23:00:00,0.822266161441803
1981-11-12 23:00:00,0.8198119401931763
1981-11-13 23:00:00,0.8026304244995117
1981-11-16 23:00:00,0.7780851721763611
1981-11-17 23:00:00,0.7829943299293518
1981-11-18 23:00:00,0.7756307125091553
1981-11-19 23:00:00,0.7780851721763611
1981-11-20 23:00:00,0.7854481935501099
1981-11-23 23:00:00,0.7731761336326599
1981-11-24 23:00:00,0.7731761336326599
1981-11-25 23:00:00,0.7707217335700989
1981-11-27 23:00:00,0.7780851721763611
1981-11-30 23:00:00,0.7903577089309692
1981-12-01 23:00:00,0.7805397510528564
1981-12-02 23:00:00,0.7805397510528564
1981-12-03 23:00:00,0.7903577089309692
1981-12-04 23:00:00,0.7903577089309692
1981-12-07 23:00:00,0.7829943299293518
1981-12-08 23:00:00,0.7756307125091553
1981-12-09 23:00:00,0.7805397510528564
1981-12-10 23:00:00,0.7829943299293518
1981-12-11 23:00:00,0.7903577089309692
1981-12-14 23:00:00,0.7707217335700989
1981-12-15 23:00:00,0.768267035484314
1981-12-16 23:00:00,0.768267035484314
1981-12-17 23:00:00,0.765812337398529
1981-12-18 23:00:00,0.7609036564826965
1981-12-21 23:00:00,0.7461759448051453
1981-12-22 23:00:00,0.7461759448051453
1981-12-23 23:00:00,0.7461759448051453
1981-12-24 23:00:00,0.7486303448677063
1981-12-28 23:00:00,0.7265397310256958
1981-12-29 23:00:00,0.7265397310256958
1981-12-30 23:00:00,0.7314488887786865
1981-12-31 23:00:00,0.7412672638893127
1982-01-04 23:00:00,0.7437217831611633
1982-01-05 23:00:00,0.7314488887786865
1982-01-06 23:00:00,0.7314488887786865
1982-01-07 23:00:00,0.7216306924819946
1982-01-08 23:00:00,0.7118126749992371
1982-01-11 23:00:00,0.6872674226760864
1982-01-12 23:00:00,0.6921765804290771
1982-01-13 23:00:00,0.6872674226760864
1982-01-14 23:00:00,0.6848128437995911
1982-01-15 23:00:00,0.6774493455886841
1982-01-18 23:00:00,0.6479950547218323
1982-01-19 23:00:00,0.6455404162406921
1982-01-20 23:00:00,0.6430858373641968
1982-01-21 23:00:00,0.6430858373641968
1982-01-22 23:00:00,0.6381768584251404
1982-01-25 23:00:00,0.6332678198814392
1982-01-26 23:00:00,0.628358781337738
1982-01-27 23:00:00,0.6308133602142334
1982-01-28 23:00:00,0.6406316757202148
1982-01-29 23:00:00,0.6553583741188049
1982-02-01 23:00:00,0.6430858373641968
1982-02-02 23:00:00,0.6479950547218323
1982-02-03 23:00:00,0.6504496932029724
1982-02-04 23:00:00,0.6529041528701782
1982-02-05 23:00:00,0.6749953031539917
1982-02-08 23:00:00,0.6529041528701782
1982-02-09 23:00:00,0.6406316757202148
1982-02-10 23:00:00,0.6406316757202148
1982-02-11 23:00:00,0.6136317849159241
1982-02-12 23:00:00,0.6209954023361206
1982-02-16 23:00:00,0.6234496831893921
1982-02-17 23:00:00,0.6209954023361206
1982-02-18 23:00:00,0.6209954023361206
1982-02-19 23:00:00,0.6185407638549805
1982-02-22 23:00:00,0.6111770868301392
1982-02-23 23:00:00,0.6160861849784851
1982-02-24 23:00:00,0.6136317849159241
1982-02-25 23:00:00,0.6136317849159241
1982-02-26 23:00:00,0.6160861849784851
1982-03-01 23:00:00,0.6087226271629333
1982-03-02 23:00:00,0.606268584728241
1982-03-03 23:00:00,0.5989043116569519
1982-03-04 23:00:00,0.5939950942993164
1982-03-05 23:00:00,0.5890862345695496
1982-03-08 23:00:00,0.5792680978775024
1982-03-09 23:00:00,0.5743591785430908
1982-03-10 23:00:00,0.5841771960258484
1982-03-11 23:00:00,0.6087226271629333
1982-03-12 23:00:00,0.6160861849784851
1982-03-15 23:00:00,0.625904381275177
1982-03-16 23:00:00,0.6308133602142334
1982-03-17 23:00:00,0.628358781337738
1982-03-18 23:00:00,0.6185407638549805
1982-03-19 23:00:00,0.6185407638549805
1982-03-22 23:00:00,0.6160861849784851
1982-03-23 23:00:00,0.625904381275177
1982-03-24 23:00:00,0.6332678198814392
1982-03-25 23:00:00,0.625904381275177
1982-03-26 23:00:00,0.6160861849784851
1982-03-29 23:00:00,0.6234496831893921
1982-03-30 23:00:00,0.625904381275177
1982-03-31 23:00:00,0.6209954023361206
1982-04-01 23:00:00,0.628358781337738
1982-04-02 23:00:00,0.6308133602142334
1982-04-05 23:00:00,0.6308133602142334
1982-04-06 23:00:00,0.6332678198814392
1982-04-07 23:00:00,0.6381768584251404
1982-04-08 23:00:00,0.635722815990448
1982-04-12 23:00:00,0.635722815990448
1982-04-13 23:00:00,0.6406316757202148
1982-04-14 23:00:00,0.6455404162406921
1982-04-15 23:00:00,0.6308133602142334
1982-04-16 23:00:00,0.628358781337738
1982-04-19 23:00:00,0.6332678198814392
1982-04-20 23:00:00,0.6332678198814392
1982-04-21 23:00:00,0.6332678198814392
1982-04-22 23:00:00,0.6332678198814392
1982-04-23 23:00:00,0.6455404162406921
1982-04-26 23:00:00,0.6651766896247864
1982-04-27 23:00:00,0.6651766896247864
1982-04-28 23:00:00,0.6676310896873474
1982-04-29 23:00:00,0.6553583741188049
1982-04-30 23:00:00,0.670086145401001
1982-05-03 23:00:00,0.6774493455886841
1982-05-04 23:00:00,0.6651766896247864
1982-05-05 23:00:00,0.6651766896247864
1982-05-06 23:00:00,0.6627218723297119
1982-05-07 23:00:00,0.6627218723297119
1982-05-10 23:00:00,0.6602673530578613
1982-05-11 23:00:00,0.670086145401001
1982-05-12 23:00:00,0.6725399494171143
1982-05-13 23:00:00,0.6529041528701782
1982-05-14 23:00:00,0.6627218723297119
1982-05-17 23:00:00,0.6627218723297119
1982-05-18 23:00:00,0.6627218723297119
1982-05-19 23:00:00,0.6676310896873474
1982-05-20 23:00:00,0.6725399494171143
1982-05-21 23:00:00,0.6676310896873474
1982-05-24 23:00:00,0.6602673530578613
1982-05-25 23:00:00,0.6553583741188049
1982-05-26 23:00:00,0.6504496932029724
1982-05-27 23:00:00,0.6504496932029724
1982-05-28 23:00:00,0.6529041528701782
1982-06-01 23:00:00,0.6234496831893921
1982-06-02 23:00:00,0.6381768584251404
1982-06-03 23:00:00,0.6332678198814392
1982-06-04 23:00:00,0.6087226271629333
1982-06-07 23:00:00,0.6038135886192322
1982-06-08 23:00:00,0.5964500904083252
1982-06-09 23:00:00,0.5768135190010071
1982-06-10 23:00:00,0.5866321325302124
1982-06-11 23:00:00,0.6013590693473816
1982-06-14 23:00:00,0.6038135886192322
1982-06-15 23:00:00,0.6038135886192322
1982-06-16 23:00:00,0.6087226271629333
1982-06-17 23:00:00,0.606268584728241
1982-06-18 23:00:00,0.6038135886192322
1982-06-21 23:00:00,0.5964500904083252
1982-06-22 23:00:00,0.5989043116569519
1982-06-23 23:00:00,0.6136317849159241
1982-06-24 23:00:00,0.6160861849784851
1982-06-25 23:00:00,0.6209954023361206
1982-06-28 23:00:00,0.628358781337738
1982-06-29 23:00:00,0.657813310623169
1982-06-30 23:00:00,0.6529041528701782
1982-07-01 23:00:00,0.6553583741188049
1982-07-02 23:00:00,0.6529041528701782
1982-07-06 23:00:00,0.6430858373641968
1982-07-07 23:00:00,0.628358781337738
1982-07-08 23:00:00,0.6406316757202148
1982-07-09 23:00:00,0.6479950547218323
1982-07-12 23:00:00,0.6479950547218323
1982-07-13 23:00:00,0.6430858373641968
1982-07-14 23:00:00,0.6332678198814392
1982-07-15 23:00:00,0.6381768584251404
1982-07-16 23:00:00,0.635722815990448
1982-07-19 23:00:00,0.6430858373641968
1982-07-20 23:00:00,0.6553583741188049
1982-07-21 23:00:00,0.6823582053184509
1982-07-22 23:00:00,0.6921765804290771
1982-07-23 23:00:00,0.6872674226760864
1982-07-26 23:00:00,0.7044492959976196
1982-07-27 23:00:00,0.699540376663208
1982-07-28 23:00:00,0.6725399494171143
1982-07-29 23:00:00,0.6921765804290771
1982-07-30 23:00:00,0.699540376663208
1982-08-02 23:00:00,0.7142673134803772
1982-08-03 23:00:00,0.706903338432312
1982-08-04 23:00:00,0.6749953031539917
1982-08-05 23:00:00,0.6651766896247864
1982-08-06 23:00:00,0.6381768584251404
1982-08-09 23:00:00,0.6455404162406921
1982-08-10 23:00:00,0.6529041528701782
1982-08-11 23:00:00,0.6529041528701782
1982-08-12 23:00:00,0.6553583741188049
1982-08-13 23:00:00,0.6627218723297119
1982-08-16 23:00:00,0.6651766896247864
1982-08-17 23:00:00,0.6848128437995911
1982-08-18 23:00:00,0.7216306924819946
1982-08-19 23:00:00,0.7265397310256958
1982-08-20 23:00:00,0.765812337398529
1982-08-23 23:00:00,0.7609036564826965
1982-08-24 23:00:00,0.7559942007064819
1982-08-25 23:00:00,0.765812337398529
1982-08-26 23:00:00,0.768267035484314
1982-08-27 23:00:00,0.7559942007064819
1982-08-30 23:00:00,0.7903577089309692
1982-08-31 23:00:00,0.7952665090560913
1982-09-01 23:00:00,0.7903577089309692
1982-09-02 23:00:00,0.7780851721763611
1982-09-03 23:00:00,0.7977211475372314
1982-09-07 23:00:00,0.8001757264137268
1982-09-08 23:00:00,0.7952665090560913
1982-09-09 23:00:00,0.7952665090560913
1982-09-10 23:00:00,0.7805397510528564
1982-09-13 23:00:00,0.7805397510528564
1982-09-14 23:00:00,0.7805397510528564
1982-09-15 23:00:00,0.7903577089309692
1982-09-16 23:00:00,0.7829943299293518
1982-09-17 23:00:00,0.7756307125091553
1982-09-20 23:00:00,0.7829943299293518
1982-09-21 23:00:00,0.7903577089309692
1982-09-22 23:00:00,0.8124487400054932
1982-09-23 23:00:00,0.8050850629806519
1982-09-24 23:00:00,0.8050850629806519
1982-09-27 23:00:00,0.8001757264137268
1982-09-28 23:00:00,0.8001757264137268
1982-09-29 23:00:00,0.7854481935501099
1982-09-30 23:00:00,0.7731761336326599
1982-10-01 23:00:00,0.7854481935501099
1982-10-04 23:00:00,0.7879029512405396
1982-10-05 23:00:00,0.7903577089309692
1982-10-06 23:00:00,0.8050850629806519
1982-10-07 23:00:00,0.8198119401931763
1982-10-08 23:00:00,0.8149027228355408
1982-10-11 23:00:00,0.822266161441803
1982-10-12 23:00:00,0.8419027328491211
1982-10-13 23:00:00,0.8885388970375061
1982-10-14 23:00:00,0.834538996219635
1982-10-15 23:00:00,0.8271753787994385
1982-10-18 23:00:00,0.8590839505195618
1982-10-19 23:00:00,0.8811748623847961
1982-10-20 23:00:00,0.903266191482544
1982-10-21 23:00:00,0.9327198266983032
1982-10-22 23:00:00,0.964629054069519
1982-10-25 23:00:00,0.9081745743751526
1982-10-26 23:00:00,0.9179933071136475
1982-10-27 23:00:00,0.964629054069519
1982-10-28 23:00:00,0.9621750116348267
1982-10-29 23:00:00,0.9449928998947144
1982-11-01 23:00:00,0.9425381422042847
1982-11-02 23:00:00,0.9474468231201172
1982-11-03 23:00:00,0.9916290640830994
1982-11-04 23:00:00,1.0210835933685303
1982-11-05 23:00:00,1.0480833053588867
1982-11-08 23:00:00,1.0284470319747925
1982-11-09 23:00:00,1.0112649202346802
1982-11-10 23:00:00,1.01617431640625
1982-11-11 23:00:00,0.9940837025642395
1982-11-12 23:00:00,0.9965379238128662
1982-11-15 23:00:00,0.9621750116348267
1982-11-16 23:00:00,0.9621750116348267
1982-11-17 23:00:00,0.9769017100334167
1982-11-18 23:00:00,0.9867202043533325
1982-11-19 23:00:00,0.9769017100334167
1982-11-22 23:00:00,0.9670832753181458
1982-11-23 23:00:00,0.9179933071136475
1982-11-24 23:00:00,0.9548114538192749
1982-11-26 23:00:00,0.9769017100334167
1982-11-29 23:00:00,0.9867202043533325
1982-11-30 23:00:00,0.9867202043533325
1982-12-01 23:00:00,1.0063554048538208
1982-12-02 23:00:00,1.01617431640625
1982-12-03 23:00:00,1.0112649202346802
1982-12-06 23:00:00,1.0210835933685303
1982-12-07 23:00:00,1.0259917974472046
1982-12-08 23:00:00,1.0112649202346802
1982-12-09 23:00:00,0.9916290640830994
1982-12-10 23:00:00,0.9719918370246887
1982-12-13 23:00:00,0.9425381422042847
1982-12-14 23:00:00,0.9425381422042847
1982-12-15 23:00:00,0.9351750016212463
1982-12-16 23:00:00,0.9253563284873962
1982-12-17 23:00:00,0.9719918370246887
1982-12-20 23:00:00,0.9670832753181458
1982-12-21 23:00:00,0.9769017100334167
1982-12-22 23:00:00,1.01617431640625
1982-12-23 23:00:00,1.0309016704559326
1982-12-27 23:00:00,1.00881028175354
1982-12-28 23:00:00,1.0358097553253174
1982-12-29 23:00:00,1.0309016704559326
1982-12-30 23:00:00,1.0259917974472046
1982-12-31 23:00:00,1.01617431640625
1983-01-03 23:00:00,0.9916290640830994
1983-01-04 23:00:00,1.0112649202346802
1983-01-05 23:00:00,1.023537516593933
1983-01-06 23:00:00,1.0750820636749268
1983-01-07 23:00:00,1.1217190027236938
1983-01-10 23:00:00,1.0996280908584595
1983-01-11 23:00:00,1.0996280908584595
1983-01-12 23:00:00,1.0554465055465698
1983-01-13 23:00:00,1.0628103017807007
1983-01-14 23:00:00,1.0701732635498047
1983-01-17 23:00:00,1.0652649402618408
1983-01-18 23:00:00,1.0947182178497314
1983-01-19 23:00:00,1.0849015712738037
1983-01-20 23:00:00,1.0554465055465698
1983-01-21 23:00:00,1.0309016704559326
1983-01-24 23:00:00,1.0112649202346802
1983-01-25 23:00:00,1.0112649202346802
1983-01-26 23:00:00,1.01617431640625
1983-01-27 23:00:00,1.0554465055465698
1983-01-28 23:00:00,1.0701732635498047
1983-01-31 23:00:00,1.0775374174118042
1983-02-01 23:00:00,1.060355544090271
1983-02-02 23:00:00,1.060355544090271
1983-02-03 23:00:00,1.0652649402618408
1983-02-04 23:00:00,1.0701732635498047
1983-02-07 23:00:00,1.0750820636749268
1983-02-08 23:00:00,1.060355544090271
1983-02-09 23:00:00,1.0579007863998413
1983-02-10 23:00:00,1.0701732635498047
1983-02-11 23:00:00,1.0701732635498047
1983-02-14 23:00:00,1.0652649402618408
1983-02-15 23:00:00,1.0505383014678955
1983-02-16 23:00:00,1.060355544090271
1983-02-17 23:00:00,1.0652649402618408
1983-02-18 23:00:00,1.060355544090271
1983-02-22 23:00:00,1.0677189826965332
1983-02-23 23:00:00,1.0677189826965332
1983-02-24 23:00:00,1.1192641258239746
1983-02-25 23:00:00,1.1119006872177124
1983-02-28 23:00:00,1.1364457607269287
1983-03-01 23:00:00,1.1585361957550049
1983-03-02 23:00:00,1.175717830657959
1983-03-03 23:00:00,1.1683543920516968
1983-03-04 23:00:00,1.1634455919265747
1983-03-07 23:00:00,1.1683543920516968
1983-03-08 23:00:00,1.1487183570861816
1983-03-09 23:00:00,1.1536270380020142
1983-03-10 23:00:00,1.1585361957550049
1983-03-11 23:00:00,1.160991907119751
1983-03-14 23:00:00,1.1708089113235474
1983-03-15 23:00:00,1.1708089113235474
1983-03-16 23:00:00,1.1781724691390991
1983-03-17 23:00:00,1.1978086233139038
1983-03-18 23:00:00,1.2518081665039062
1983-03-21 23:00:00,1.2272635698318481
1983-03-22 23:00:00,1.237081527709961
1983-03-23 23:00:00,1.2321722507476807
1983-03-24 23:00:00,1.2223535776138306
1983-03-25 23:00:00,1.2174452543258667
1983-03-28 23:00:00,1.2223535776138306
1983-03-29 23:00:00,1.2125366926193237
1983-03-30 23:00:00,1.2002637386322021
1983-03-31 23:00:00,1.2076271772384644
1983-04-04 23:00:00,1.2125366926193237
1983-04-05 23:00:00,1.2125366926193237
1983-04-06 23:00:00,1.2076271772384644
1983-04-07 23:00:00,1.2076271772384644
1983-04-08 23:00:00,1.1830819845199585
1983-04-11 23:00:00,1.1830819845199585
1983-04-12 23:00:00,1.2027174234390259
1983-04-13 23:00:00,1.2272635698318481
1983-04-14 23:00:00,1.237081527709961
1983-04-15 23:00:00,1.2297179698944092
1983-04-18 23:00:00,1.2346277236938477
1983-04-19 23:00:00,1.249354600906372
1983-04-20 23:00:00,1.2518081665039062
1983-04-21 23:00:00,1.241990327835083
1983-04-22 23:00:00,1.241990327835083
1983-04-25 23:00:00,1.2468993663787842
1983-04-26 23:00:00,1.256717562675476
1983-04-27 23:00:00,1.2640811204910278
1983-04-28 23:00:00,1.2689908742904663
1983-04-29 23:00:00,1.2837175130844116
1983-05-02 23:00:00,1.2738995552062988
1983-05-03 23:00:00,1.2689908742904663
1983-05-04 23:00:00,1.2658201456069946
1983-05-05 23:00:00,1.248478889465332
1983-05-06 23:00:00,1.283159852027893
1983-05-09 23:00:00,1.2856370210647583
1983-05-10 23:00:00,1.2782050371170044
1983-05-11 23:00:00,1.2757279872894287
1983-05-12 23:00:00,1.2608654499053955
1983-05-13 23:00:00,1.263342022895813
1983-05-16 23:00:00,1.268296241760254
1983-05-17 23:00:00,1.2732499837875366
1983-05-18 23:00:00,1.2782050371170044
1983-05-19 23:00:00,1.2534334659576416
1983-05-20 23:00:00,1.2707734107971191
1983-05-23 23:00:00,1.28068208694458
1983-05-24 23:00:00,1.3054533004760742
1983-05-25 23:00:00,1.3029764890670776
1983-05-26 23:00:00,1.3327016830444336
1983-05-27 23:00:00,1.3203167915344238
1983-05-31 23:00:00,1.298021912574768
1983-06-01 23:00:00,1.3005003929138184
1983-06-02 23:00:00,1.2782050371170044
1983-06-03 23:00:00,1.2782050371170044
1983-06-06 23:00:00,1.2905910015106201
1983-06-07 23:00:00,1.283159852027893
1983-06-08 23:00:00,1.2707734107971191
1983-06-09 23:00:00,1.2707734107971191
1983-06-10 23:00:00,1.2881139516830444
1983-06-13 23:00:00,1.2930686473846436
1983-06-14 23:00:00,1.3029764890670776
1983-06-15 23:00:00,1.3054533004760742
1983-06-16 23:00:00,1.3178389072418213
1983-06-17 23:00:00,1.30793035030365
1983-06-20 23:00:00,1.3054533004760742
1983-06-21 23:00:00,1.298021912574768
1983-06-22 23:00:00,1.298021912574768
1983-06-23 23:00:00,1.2905910015106201
1983-06-24 23:00:00,1.298021912574768
1983-06-27 23:00:00,1.2930686473846436
1983-06-28 23:00:00,1.283159852027893
1983-06-29 23:00:00,1.248478889465332
1983-06-30 23:00:00,1.2583880424499512
1983-07-01 23:00:00,1.2757279872894287
1983-07-05 23:00:00,1.2658201456069946
1983-07-06 23:00:00,1.263342022895813
1983-07-07 23:00:00,1.2583880424499512
1983-07-08 23:00:00,1.263342022895813
1983-07-11 23:00:00,1.2608654499053955
1983-07-12 23:00:00,1.2385715246200562
1983-07-13 23:00:00,1.2261854410171509
1983-07-14 23:00:00,1.2360936403274536
1983-07-15 23:00:00,1.2137995958328247
1983-07-18 23:00:00,1.2088451385498047
1983-07-19 23:00:00,1.2088451385498047
1983-07-20 23:00:00,1.2286618947982788
1983-07-21 23:00:00,1.268296241760254
1983-07-22 23:00:00,1.30793035030365
1983-07-25 23:00:00,1.3351795673370361
1983-07-26 23:00:00,1.367382526397705
1983-07-27 23:00:00,1.330224871635437
1983-07-28 23:00:00,1.2955455780029297
1983-07-29 23:00:00,1.2658201456069946
1983-08-01 23:00:00,1.2410480976104736
1983-08-02 23:00:00,1.2410480976104736
1983-08-03 23:00:00,1.2286618947982788
1983-08-04 23:00:00,1.1889151334762573
1983-08-05 23:00:00,1.1964242458343506
1983-08-08 23:00:00,1.1964242458343506
1983-08-09 23:00:00,1.1764001846313477
1983-08-10 23:00:00,1.131346583366394
1983-08-11 23:00:00,1.141358733177185
1983-08-12 23:00:00,1.1638855934143066
1983-08-15 23:00:00,1.201429843902588
1983-08-16 23:00:00,1.1764001846313477
1983-08-17 23:00:00,1.1964242458343506
1983-08-18 23:00:00,1.1889151334762573
1983-08-19 23:00:00,1.1964242458343506
1983-08-22 23:00:00,1.1989266872406006
1983-08-23 23:00:00,1.2139447927474976
1983-08-24 23:00:00,1.1964242458343506
1983-08-25 23:00:00,1.218950867652893
1983-08-26 23:00:00,1.2514902353286743
1983-08-29 23:00:00,1.2640048265457153
1983-08-30 23:00:00,1.2815258502960205
1983-08-31 23:00:00,1.27651846408844
1983-09-01 23:00:00,1.2965437173843384
1983-09-02 23:00:00,1.3215727806091309
1983-09-06 23:00:00,1.3415974378585815
1983-09-07 23:00:00,1.3891533613204956
1983-09-08 23:00:00,1.3966623544692993
1983-09-09 23:00:00,1.3716320991516113
1983-09-12 23:00:00,1.364123821258545
1983-09-13 23:00:00,1.3415974378585815
1983-09-14 23:00:00,1.3466025590896606
1983-09-15 23:00:00,1.351608157157898
1983-09-16 23:00:00,1.3115607500076294
1983-09-19 23:00:00,1.33659029006958
1983-09-20 23:00:00,1.3616200685501099
1983-09-21 23:00:00,1.4317041635513306
1983-09-22 23:00:00,1.421692132949829
1983-09-23 23:00:00,1.4567331075668335
1983-09-26 23:00:00,1.4367101192474365
1983-09-27 23:00:00,1.4417160749435425
1983-09-28 23:00:00,1.4266988039016724
1983-09-29 23:00:00,1.3916561603546143
1983-09-30 23:00:00,1.3165664672851562
1983-10-03 23:00:00,1.3165664672851562
1983-10-04 23:00:00,1.3566149473190308
1983-10-05 23:00:00,1.3616200685501099
1983-10-06 23:00:00,1.3916561603546143
1983-10-07 23:00:00,1.476757287979126
1983-10-10 23:00:00,1.4467225074768066
1983-10-11 23:00:00,1.4417160749435425
1983-10-12 23:00:00,1.4617397785186768
1983-10-13 23:00:00,1.4667457342147827
1983-10-14 23:00:00,1.4567331075668335
1983-10-17 23:00:00,1.411679983139038
1983-10-18 23:00:00,1.411679983139038
1983-10-19 23:00:00,1.411679983139038
1983-10-20 23:00:00,1.4317041635513306
1983-10-21 23:00:00,1.4517279863357544
1983-10-24 23:00:00,1.4617397785186768
1983-10-25 23:00:00,1.4567331075668335
1983-10-26 23:00:00,1.4467225074768066
1983-10-27 23:00:00,1.4367101192474365
1983-10-28 23:00:00,1.4417160749435425
1983-10-31 23:00:00,1.4617397785186768
1983-11-01 23:00:00,1.4317041635513306
1983-11-02 23:00:00,1.4567331075668335
1983-11-03 23:00:00,1.4444111585617065
1983-11-04 23:00:00,1.4040071964263916
1983-11-07 23:00:00,1.3838061094284058
1983-11-08 23:00:00,1.3585537672042847
1983-11-09 23:00:00,1.3737043142318726
1983-11-10 23:00:00,1.3585537672042847
1983-11-11 23:00:00,1.3939067125320435
1983-11-14 23:00:00,1.4141075611114502
1983-11-15 23:00:00,1.4040071964263916
1983-11-16 23:00:00,1.4242087602615356
1983-11-17 23:00:00,1.4191594123840332
1983-11-18 23:00:00,1.4191594123840332
1983-11-21 23:00:00,1.4242087602615356
1983-11-22 23:00:00,1.4646124839782715
1983-11-23 23:00:00,1.479763150215149
1983-11-25 23:00:00,1.4848145246505737
1983-11-28 23:00:00,1.4747130870819092
1983-11-29 23:00:00,1.4343100786209106
1983-11-30 23:00:00,1.4595627784729004
1983-12-01 23:00:00,1.454512357711792
1983-12-02 23:00:00,1.4696621894836426
1983-12-05 23:00:00,1.454512357711792
1983-12-06 23:00:00,1.4444111585617065
1983-12-07 23:00:00,1.4343100786209106
1983-12-08 23:00:00,1.4343100786209106
1983-12-09 23:00:00,1.4343100786209106
1983-12-12 23:00:00,1.4191594123840332
1983-12-13 23:00:00,1.4242087602615356
1983-12-14 23:00:00,1.4040071964263916
1983-12-15 23:00:00,1.3787554502487183
1983-12-16 23:00:00,1.3686553239822388
1983-12-19 23:00:00,1.3888565301895142
1983-12-20 23:00:00,1.3888565301895142
1983-12-21 23:00:00,1.3939067125320435
1983-12-22 23:00:00,1.3737043142318726
1983-12-23 23:00:00,1.363604187965393
1983-12-27 23:00:00,1.3989579677581787
1983-12-28 23:00:00,1.3888565301895142
1983-12-29 23:00:00,1.4343100786209106
1983-12-30 23:00:00,1.4090577363967896
1984-01-03 23:00:00,1.4040071964263916
1984-01-04 23:00:00,1.4040071964263916
1984-01-05 23:00:00,1.4747130870819092
1984-01-06 23:00:00,1.4848145246505737
1984-01-09 23:00:00,1.5100655555725098
1984-01-10 23:00:00,1.479763150215149
1984-01-11 23:00:00,1.479763150215149
1984-01-12 23:00:00,1.454512357711792
1984-01-13 23:00:00,1.4141075611114502
1984-01-16 23:00:00,1.4292596578598022
1984-01-17 23:00:00,1.4292596578598022
1984-01-18 23:00:00,1.4141075611114502
1984-01-19 23:00:00,1.4343100786209106
1984-01-20 23:00:00,1.439361333847046
1984-01-23 23:00:00,1.3888565301895142
1984-01-24 23:00:00,1.363604187965393
1984-01-25 23:00:00,1.363604187965393
1984-01-26 23:00:00,1.3434031009674072
1984-01-27 23:00:00,1.3333022594451904
1984-01-30 23:00:00,1.292899489402771
1984-01-31 23:00:00,1.292899489402771
1984-02-01 23:00:00,1.2827986478805542
1984-02-02 23:00:00,1.252495288848877
1984-02-03 23:00:00,1.2726978063583374
1984-02-06 23:00:00,1.2726978063583374
1984-02-07 23:00:00,1.2777472734451294
1984-02-08 23:00:00,1.2726978063583374
1984-02-09 23:00:00,1.2423955202102661
1984-02-10 23:00:00,1.2221943140029907
1984-02-13 23:00:00,1.2171436548233032
1984-02-14 23:00:00,1.225106120109558
1984-02-15 23:00:00,1.1842689514160156
1984-02-16 23:00:00,1.1842689514160156
1984-02-17 23:00:00,1.1332234144210815
1984-02-21 23:00:00,1.138328194618225
1984-02-22 23:00:00,1.1689561605453491
1984-02-23 23:00:00,1.1587462425231934
1984-02-24 23:00:00,1.1740610599517822
1984-02-27 23:00:00,1.235315203666687
1984-02-28 23:00:00,1.1944786310195923
1984-02-29 23:00:00,1.2200020551681519
1984-03-01 23:00:00,1.235315203666687
1984-03-02 23:00:00,1.235315203666687
1984-03-05 23:00:00,1.2148971557617188
1984-03-06 23:00:00,1.2302111387252808
1984-03-07 23:00:00,1.225106120109558
1984-03-08 23:00:00,1.2148971557617188
1984-03-09 23:00:00,1.1944786310195923
1984-03-12 23:00:00,1.225106120109558
1984-03-13 23:00:00,1.2455254793167114
1984-03-14 23:00:00,1.2455254793167114
1984-03-15 23:00:00,1.2455254793167114
1984-03-16 23:00:00,1.2812572717666626
1984-03-19 23:00:00,1.2608383893966675
1984-03-20 23:00:00,1.2608383893966675
1984-03-21 23:00:00,1.265942931175232
1984-03-22 23:00:00,1.2506293058395386
1984-03-23 23:00:00,1.235315203666687
1984-03-26 23:00:00,1.240419864654541
1984-03-27 23:00:00,1.240419864654541
1984-03-28 23:00:00,1.2455254793167114
1984-03-29 23:00:00,1.240419864654541
1984-03-30 23:00:00,1.240419864654541
1984-04-02 23:00:00,1.1893742084503174
1984-04-03 23:00:00,1.204688310623169
1984-04-04 23:00:00,1.2097934484481812
1984-04-05 23:00:00,1.2097934484481812
1984-04-06 23:00:00,1.1944786310195923
1984-04-09 23:00:00,1.1485379934310913
1984-04-10 23:00:00,1.1281187534332275
1984-04-11 23:00:00,1.1230144500732422
1984-04-12 23:00:00,1.1587462425231934
1984-04-13 23:00:00,1.138328194618225
1984-04-16 23:00:00,1.1332234144210815
1984-04-17 23:00:00,1.1434327363967896
1984-04-18 23:00:00,1.1485379934310913
1984-04-19 23:00:00,1.1638511419296265
1984-04-23 23:00:00,1.1638511419296265
1984-04-24 23:00:00,1.1434327363967896
1984-04-25 23:00:00,1.1638511419296265
1984-04-26 23:00:00,1.2097934484481812
1984-04-27 23:00:00,1.225106120109558
1984-04-30 23:00:00,1.235315203666687
1984-05-01 23:00:00,1.2557348012924194
1984-05-02 23:00:00,1.2608383893966675
1984-05-03 23:00:00,1.2506293058395386
1984-05-04 23:00:00,1.2086867094039917
1984-05-07 23:00:00,1.2396790981292725
1984-05-08 23:00:00,1.2603403329849243
1984-05-09 23:00:00,1.250009536743164
1984-05-10 23:00:00,1.250009536743164
1984-05-11 23:00:00,1.2241833209991455
1984-05-14 23:00:00,1.1983556747436523
1984-05-15 23:00:00,1.1828598976135254
1984-05-16 23:00:00,1.1776950359344482
1984-05-17 23:00:00,1.1467034816741943
1984-05-18 23:00:00,1.13120698928833
1984-05-21 23:00:00,1.13120698928833
1984-05-22 23:00:00,1.105380654335022
1984-05-23 23:00:00,1.1208765506744385
1984-05-24 23:00:00,1.105380654335022
1984-05-25 23:00:00,1.0950499773025513
1984-05-29 23:00:00,1.0743886232376099
1984-05-30 23:00:00,1.0433968305587769
1984-05-31 23:00:00,1.0330663919448853
1984-06-01 23:00:00,1.058892011642456
1984-06-04 23:00:00,1.1157118082046509
1984-06-05 23:00:00,1.105380654335022
1984-06-06 23:00:00,1.1467034816741943
1984-06-07 23:00:00,1.1621992588043213
1984-06-08 23:00:00,1.1673648357391357
1984-06-11 23:00:00,1.1673648357391357
1984-06-12 23:00:00,1.1570336818695068
1984-06-13 23:00:00,1.1621992588043213
1984-06-14 23:00:00,1.1415382623672485
1984-06-15 23:00:00,1.1260418891906738
1984-06-18 23:00:00,1.1467034816741943
1984-06-19 23:00:00,1.1518690586090088
1984-06-20 23:00:00,1.1467034816741943
1984-06-21 23:00:00,1.1415382623672485
1984-06-22 23:00:00,1.1415382623672485
1984-06-25 23:00:00,1.1467034816741943
1984-06-26 23:00:00,1.1467034816741943
1984-06-27 23:00:00,1.136372685432434
1984-06-28 23:00:00,1.136372685432434
1984-06-29 23:00:00,1.1518690586090088
1984-07-02 23:00:00,1.1518690586090088
1984-07-03 23:00:00,1.1776950359344482
1984-07-05 23:00:00,1.1725291013717651
1984-07-06 23:00:00,1.1725291013717651
1984-07-09 23:00:00,1.1983556747436523
1984-07-10 23:00:00,1.22934889793396
1984-07-11 23:00:00,1.2190176248550415
1984-07-12 23:00:00,1.1983556747436523
1984-07-13 23:00:00,1.1931909322738647
1984-07-16 23:00:00,1.1983556747436523
1984-07-17 23:00:00,1.2086867094039917
1984-07-18 23:00:00,1.1983556747436523
1984-07-19 23:00:00,1.1570336818695068
1984-07-20 23:00:00,1.1880263090133667
1984-07-23 23:00:00,1.1725291013717651
1984-07-24 23:00:00,1.1725291013717651
1984-07-25 23:00:00,1.1725291013717651
1984-07-26 23:00:00,1.1673648357391357
1984-07-27 23:00:00,1.1673648357391357
1984-07-30 23:00:00,1.1570336818695068
1984-07-31 23:00:00,1.1415382623672485
1984-08-01 23:00:00,1.1983556747436523
1984-08-02 23:00:00,1.2396790981292725
1984-08-03 23:00:00,1.2810015678405762
1984-08-06 23:00:00,1.3169560432434082
1984-08-07 23:00:00,1.3326349258422852
1984-08-08 23:00:00,1.3169560432434082
1984-08-09 23:00:00,1.3744428157806396
1984-08-10 23:00:00,1.4005732536315918
1984-08-13 23:00:00,1.3639912605285645
1984-08-14 23:00:00,1.369216799736023
1984-08-15 23:00:00,1.3639912605285645
1984-08-16 23:00:00,1.369216799736023
1984-08-17 23:00:00,1.3744428157806396
1984-08-20 23:00:00,1.4005732536315918
1984-08-21 23:00:00,1.4162510633468628
1984-08-22 23:00:00,1.4110243320465088
1984-08-23 23:00:00,1.4005732536315918
1984-08-24 23:00:00,1.437154769897461
1984-08-27 23:00:00,1.4319285154342651
1984-08-28 23:00:00,1.4162510633468628
1984-08-29 23:00:00,1.4005732536315918
1984-08-30 23:00:00,1.3901206254959106
1984-08-31 23:00:00,1.4005732536315918
1984-09-04 23:00:00,1.3953477144241333
1984-09-05 23:00:00,1.3848953247070312
1984-09-06 23:00:00,1.4005732536315918
1984-09-07 23:00:00,1.4005732536315918
1984-09-10 23:00:00,1.4005732536315918
1984-09-11 23:00:00,1.4214781522750854
1984-09-12 23:00:00,1.4110243320465088
1984-09-13 23:00:00,1.4528323411941528
1984-09-14 23:00:00,1.4528323411941528
1984-09-17 23:00:00,1.4737368822097778
1984-09-18 23:00:00,1.4998672008514404
1984-09-19 23:00:00,1.4841886758804321
1984-09-20 23:00:00,1.4946413040161133
1984-09-21 23:00:00,1.4841886758804321
1984-09-24 23:00:00,1.4946413040161133
1984-09-25 23:00:00,1.478962779045105
1984-09-26 23:00:00,1.458059549331665
1984-09-27 23:00:00,1.4632853269577026
1984-09-28 23:00:00,1.4110243320465088
1984-10-01 23:00:00,1.4110243320465088
1984-10-02 23:00:00,1.3953477144241333
1984-10-03 23:00:00,1.348312497138977
1984-10-04 23:00:00,1.369216799736023
1984-10-05 23:00:00,1.3953477144241333
1984-10-08 23:00:00,1.3744428157806396
1984-10-09 23:00:00,1.3848953247070312
1984-10-10 23:00:00,1.3901206254959106
1984-10-11 23:00:00,1.4110243320465088
1984-10-12 23:00:00,1.437154769897461
1984-10-15 23:00:00,1.4528323411941528
1984-10-16 23:00:00,1.4110243320465088
1984-10-17 23:00:00,1.4214781522750854
1984-10-18 23:00:00,1.4528323411941528
1984-10-19 23:00:00,1.478962779045105
1984-10-22 23:00:00,1.4632853269577026
1984-10-23 23:00:00,1.4528323411941528
1984-10-24 23:00:00,1.4685118198394775
1984-10-25 23:00:00,1.4528323411941528
1984-10-26 23:00:00,1.4319285154342651
1984-10-29 23:00:00,1.4214781522750854
1984-10-30 23:00:00,1.4476079940795898
1984-10-31 23:00:00,1.437154769897461
1984-11-01 23:00:00,1.379669189453125
1984-11-02 23:00:00,1.400170087814331
1984-11-05 23:00:00,1.4213032722473145
1984-11-06 23:00:00,1.4530057907104492
1984-11-07 23:00:00,1.4477221965789795
1984-11-08 23:00:00,1.4477221965789795
1984-11-09 23:00:00,1.4477221965789795
1984-11-12 23:00:00,1.4530057907104492
1984-11-13 23:00:00,1.4477221965789795
1984-11-14 23:00:00,1.4582899808883667
1984-11-15 23:00:00,1.4582899808883667
1984-11-16 23:00:00,1.4635742902755737
1984-11-19 23:00:00,1.4582899808883667
1984-11-20 23:00:00,1.4371559619903564
1984-11-21 23:00:00,1.4371559619903564
1984-11-23 23:00:00,1.4371559619903564
1984-11-26 23:00:00,1.4318722486495972
1984-11-27 23:00:00,1.4213032722473145
1984-11-28 23:00:00,1.400170087814331
1984-11-29 23:00:00,1.3790346384048462
1984-11-30 23:00:00,1.3896026611328125
1984-12-03 23:00:00,1.3790346384048462
1984-12-04 23:00:00,1.4054523706436157
1984-12-05 23:00:00,1.384318470954895
1984-12-06 23:00:00,1.400170087814331
1984-12-07 23:00:00,1.394885778427124
1984-12-10 23:00:00,1.400170087814331
1984-12-11 23:00:00,1.400170087814331
1984-12-12 23:00:00,1.400170087814331
1984-12-13 23:00:00,1.3896026611328125
1984-12-14 23:00:00,1.384318470954895
1984-12-17 23:00:00,1.3737518787384033
1984-12-18 23:00:00,1.4107370376586914
1984-12-19 23:00:00,1.4054523706436157
1984-12-20 23:00:00,1.394885778427124
1984-12-21 23:00:00,1.368468165397644
1984-12-24 23:00:00,1.3896026611328125
1984-12-26 23:00:00,1.368468165397644
1984-12-27 23:00:00,1.3737518787384033
1984-12-28 23:00:00,1.368468165397644
1984-12-31 23:00:00,1.3896026611328125
1985-01-02 23:00:00,1.4054523706436157
1985-01-03 23:00:00,1.4054523706436157
1985-01-04 23:00:00,1.394885778427124
1985-01-07 23:00:00,1.4107370376586914
1985-01-08 23:00:00,1.4160206317901611
1985-01-09 23:00:00,1.4265873432159424
1985-01-10 23:00:00,1.4530057907104492
1985-01-11 23:00:00,1.4477221965789795
1985-01-14 23:00:00,1.4635742902755737
1985-01-15 23:00:00,1.489991307258606
1985-01-16 23:00:00,1.5269781351089478
1985-01-17 23:00:00,1.5216944217681885
1985-01-18 23:00:00,1.537543773651123
1985-01-21 23:00:00,1.5956648588180542
1985-01-22 23:00:00,1.6009479761123657
1985-01-23 23:00:00,1.6115156412124634
1985-01-24 23:00:00,1.6009479761123657
1985-01-25 23:00:00,1.6643528938293457
1985-01-28 23:00:00,1.6907703876495361
1985-01-29 23:00:00,1.6802024841308594
1985-01-30 23:00:00,1.6802024841308594
1985-01-31 23:00:00,1.6379339694976807
1985-02-01 23:00:00,1.6167988777160645
1985-02-04 23:00:00,1.627367615699768
1985-02-05 23:00:00,1.6167988777160645
1985-02-06 23:00:00,1.5903819799423218
1985-02-07 23:00:00,1.6167988777160645
1985-02-08 23:00:00,1.6432175636291504
1985-02-11 23:00:00,1.6389464139938354
1985-02-12 23:00:00,1.6175923347473145
1985-02-13 23:00:00,1.6175923347473145
1985-02-14 23:00:00,1.601577639579773
1985-02-15 23:00:00,1.5802223682403564
1985-02-19 23:00:00,1.5748838186264038
1985-02-20 23:00:00,1.569545030593872
1985-02-21 23:00:00,1.5642067193984985
1985-02-22 23:00:00,1.569545030593872
1985-02-25 23:00:00,1.5748838186264038
1985-02-26 23:00:00,1.5855611562728882
1985-02-27 23:00:00,1.5908995866775513
1985-02-28 23:00:00,1.6122537851333618
1985-03-01 23:00:00,1.649624228477478
1985-03-04 23:00:00,1.6282694339752197
1985-03-05 23:00:00,1.6229305267333984
1985-03-06 23:00:00,1.6442859172821045
1985-03-07 23:00:00,1.649624228477478
1985-03-08 23:00:00,1.6763172149658203
1985-03-11 23:00:00,1.6656399965286255
1985-03-12 23:00:00,1.6229305267333984
1985-03-13 23:00:00,1.606916069984436
1985-03-14 23:00:00,1.6389464139938354
1985-03-15 23:00:00,1.5802223682403564
1985-03-18 23:00:00,1.5962369441986084
1985-03-19 23:00:00,1.6229305267333984
1985-03-20 23:00:00,1.601577639579773
1985-03-21 23:00:00,1.5962369441986084
1985-03-22 23:00:00,1.606916069984436
1985-03-25 23:00:00,1.606916069984436
1985-03-26 23:00:00,1.6122537851333618
1985-03-27 23:00:00,1.6175923347473145
1985-03-28 23:00:00,1.5962369441986084
1985-03-29 23:00:00,1.5908995866775513
1985-04-01 23:00:00,1.601577639579773
1985-04-02 23:00:00,1.606916069984436
1985-04-03 23:00:00,1.6229305267333984
1985-04-04 23:00:00,1.6175923347473145
1985-04-08 23:00:00,1.6175923347473145
1985-04-09 23:00:00,1.6122537851333618
1985-04-10 23:00:00,1.601577639579773
1985-04-11 23:00:00,1.601577639579773
1985-04-12 23:00:00,1.5908995866775513
1985-04-15 23:00:00,1.601577639579773
1985-04-16 23:00:00,1.5802223682403564
1985-04-17 23:00:00,1.5321755409240723
1985-04-18 23:00:00,1.5108212232589722
1985-04-19 23:00:00,1.5161592960357666
1985-04-22 23:00:00,1.5054818391799927
1985-04-23 23:00:00,1.5214978456497192
1985-04-24 23:00:00,1.5001434087753296
1985-04-25 23:00:00,1.5161592960357666
1985-04-26 23:00:00,1.5108212232589722
1985-04-29 23:00:00,1.5001434087753296
1985-04-30 23:00:00,1.4894663095474243
1985-05-01 23:00:00,1.4841281175613403
1985-05-02 23:00:00,1.4894663095474243
1985-05-03 23:00:00,1.5001434087753296
1985-05-06 23:00:00,1.4904237985610962
1985-05-07 23:00:00,1.5120234489440918
1985-05-08 23:00:00,1.5012238025665283
1985-05-09 23:00:00,1.522823452949524
1985-05-10 23:00:00,1.5606248378753662
1985-05-13 23:00:00,1.5552245378494263
1985-05-14 23:00:00,1.587624430656433
1985-05-15 23:00:00,1.6038249731063843
1985-05-16 23:00:00,1.641625165939331
1985-05-17 23:00:00,1.6740260124206543
1985-05-20 23:00:00,1.706426978111267
1985-05-21 23:00:00,1.7118275165557861
1985-05-22 23:00:00,1.706426978111267
1985-05-23 23:00:00,1.7118275165557861
1985-05-24 23:00:00,1.7010269165039062
1985-05-28 23:00:00,1.679425835609436
1985-05-29 23:00:00,1.6848267316818237
1985-05-30 23:00:00,1.6848267316818237
1985-05-31 23:00:00,1.6902272701263428
1985-06-03 23:00:00,1.66322660446167
1985-06-04 23:00:00,1.7010269165039062
1985-06-05 23:00:00,1.760428786277771
1985-06-06 23:00:00,1.7658286094665527
1985-06-07 23:00:00,1.7820286750793457
1985-06-10 23:00:00,1.7712277173995972
1985-06-11 23:00:00,1.7658286094665527
1985-06-12 23:00:00,1.760428786277771
1985-06-13 23:00:00,1.760428786277771
1985-06-14 23:00:00,1.8036277294158936
1985-06-17 23:00:00,1.8144290447235107
1985-06-18 23:00:00,1.7928286790847778
1985-06-19 23:00:00,1.8144290447235107
1985-06-20 23:00:00,1.8252286911010742
1985-06-21 23:00:00,1.83062744140625
1985-06-24 23:00:00,1.819827914237976
1985-06-25 23:00:00,1.7982295751571655
1985-06-26 23:00:00,1.8144290447235107
1985-06-27 23:00:00,1.8036277294158936
1985-06-28 23:00:00,1.8090283870697021
1985-07-01 23:00:00,1.8252286911010742
1985-07-02 23:00:00,1.836029291152954
1985-07-03 23:00:00,1.8684300184249878
1985-07-05 23:00:00,1.87382972240448
1985-07-08 23:00:00,1.87382972240448
1985-07-09 23:00:00,1.8630284070968628
1985-07-10 23:00:00,1.8576291799545288
1985-07-11 23:00:00,1.8630284070968628
1985-07-12 23:00:00,1.8846302032470703
1985-07-15 23:00:00,1.8846302032470703
1985-07-16 23:00:00,1.9008293151855469
1985-07-17 23:00:00,1.9602317810058594
1985-07-18 23:00:00,1.9980318546295166
1985-07-19 23:00:00,2.0304319858551025
1985-07-22 23:00:00,1.9926313161849976
1985-07-23 23:00:00,1.9440312385559082
1985-07-24 23:00:00,1.9116296768188477
1985-07-25 23:00:00,1.9224307537078857
1985-07-26 23:00:00,1.9764313697814941
1985-07-29 23:00:00,1.9494309425354004
1985-07-30 23:00:00,1.9494309425354004
1985-07-31 23:00:00,1.9602317810058594
1985-08-01 23:00:00,1.9548317193984985
1985-08-02 23:00:00,1.9656306505203247
1985-08-05 23:00:00,1.9548317193984985
1985-08-06 23:00:00,1.917782187461853
1985-08-07 23:00:00,1.917782187461853
1985-08-08 23:00:00,1.983162522315979
1985-08-09 23:00:00,1.9668171405792236
1985-08-12 23:00:00,1.9613690376281738
1985-08-13 23:00:00,1.9668171405792236
1985-08-14 23:00:00,1.9722648859024048
1985-08-15 23:00:00,1.9286792278289795
1985-08-16 23:00:00,1.8905415534973145
1985-08-19 23:00:00,1.9014374017715454
1985-08-20 23:00:00,1.9341284036636353
1985-08-21 23:00:00,1.9395767450332642
1985-08-22 23:00:00,1.917782187461853
1985-08-23 23:00:00,1.9123331308364868
1985-08-26 23:00:00,1.917782187461853
1985-08-27 23:00:00,1.9395767450332642
1985-08-28 23:00:00,1.917782187461853
1985-08-29 23:00:00,1.9286792278289795
1985-08-30 23:00:00,1.9286792278289795
1985-09-03 23:00:00,1.983162522315979
1985-09-04 23:00:00,1.9777143001556396
1985-09-05 23:00:00,1.9450241327285767
1985-09-06 23:00:00,1.9341284036636353
1985-09-09 23:00:00,1.917782187461853
1985-09-10 23:00:00,1.917782187461853
1985-09-11 23:00:00,1.8796442747116089
1985-09-12 23:00:00,1.874197244644165
1985-09-13 23:00:00,1.8905415534973145
1985-09-16 23:00:00,1.9232312440872192
1985-09-17 23:00:00,1.9559199810028076
1985-09-18 23:00:00,1.9123331308364868
1985-09-19 23:00:00,1.9123331308364868
1985-09-20 23:00:00,1.9068857431411743
1985-09-23 23:00:00,1.950473666191101
1985-09-24 23:00:00,1.9559199810028076
1985-09-25 23:00:00,1.9559199810028076
1985-09-26 23:00:00,1.950473666191101
1985-09-30 23:00:00,1.9613690376281738
1985-10-01 23:00:00,1.9886101484298706
1985-10-02 23:00:00,1.950473666191101
1985-10-03 23:00:00,1.9559199810028076
1985-10-04 23:00:00,1.9450241327285767
1985-10-07 23:00:00,1.8850935697555542
1985-10-08 23:00:00,1.9014374017715454
1985-10-09 23:00:00,1.8959907293319702
1985-10-10 23:00:00,1.8959907293319702
1985-10-11 23:00:00,1.9068857431411743
1985-10-14 23:00:00,1.9286792278289795
1985-10-15 23:00:00,1.950473666191101
1985-10-16 23:00:00,1.9777143001556396
1985-10-17 23:00:00,1.983162522315979
1985-10-18 23:00:00,1.9450241327285767
1985-10-21 23:00:00,1.9722648859024048
1985-10-22 23:00:00,1.9886101484298706
1985-10-23 23:00:00,1.9777143001556396
1985-10-24 23:00:00,1.9613690376281738
1985-10-25 23:00:00,1.9559199810028076
1985-10-28 23:00:00,1.9559199810028076
1985-10-29 23:00:00,1.9722648859024048
1985-10-30 23:00:00,1.9777143001556396
1985-10-31 23:00:00,1.983162522315979
1985-11-01 23:00:00,2.053987979888916
1985-11-04 23:00:00,2.059436082839966
1985-11-05 23:00:00,2.1172914505004883
1985-11-06 23:00:00,2.1282906532287598
1985-11-07 23:00:00,2.1667869091033936
1985-11-08 23:00:00,2.1447887420654297
1985-11-11 23:00:00,2.1667869091033936
1985-11-12 23:00:00,2.194283962249756
1985-11-13 23:00:00,2.1612868309020996
1985-11-14 23:00:00,2.1722850799560547
1985-11-15 23:00:00,2.1832854747772217
1985-11-18 23:00:00,2.216282606124878
1985-11-19 23:00:00,2.2602779865264893
1985-11-20 23:00:00,2.243779420852661
1985-11-21 23:00:00,2.243779420852661
1985-11-22 23:00:00,2.18878436088562
1985-11-25 23:00:00,2.2052817344665527
1985-11-26 23:00:00,2.1667869091033936
1985-11-27 23:00:00,2.2107808589935303
1985-11-29 23:00:00,2.194283962249756
1985-12-02 23:00:00,2.1832854747772217
1985-12-03 23:00:00,2.1777851581573486
1985-12-04 23:00:00,2.1722850799560547
1985-12-05 23:00:00,2.089794635772705
1985-12-06 23:00:00,2.0622966289520264
1985-12-09 23:00:00,2.1007936000823975
1985-12-10 23:00:00,2.095292806625366
1985-12-11 23:00:00,2.106292247772217
1985-12-12 23:00:00,2.106292247772217
1985-12-13 23:00:00,2.1832854747772217
1985-12-16 23:00:00,2.2327802181243896
1985-12-17 23:00:00,2.23828125
1985-12-18 23:00:00,2.2327802181243896
1985-12-19 23:00:00,2.216282606124878
1985-12-20 23:00:00,2.243779420852661
1985-12-23 23:00:00,2.23828125
1985-12-24 23:00:00,2.1612868309020996
1985-12-26 23:00:00,2.150287389755249
1985-12-27 23:00:00,2.1777851581573486
1985-12-30 23:00:00,2.2052817344665527
1985-12-31 23:00:00,2.243779420852661
1986-01-02 23:00:00,2.2272794246673584
1986-01-03 23:00:00,2.216282606124878
1986-01-06 23:00:00,2.1777851581573486
1986-01-07 23:00:00,2.155787944793701
1986-01-08 23:00:00,2.012800931930542
1986-01-09 23:00:00,2.051297664642334
1986-01-10 23:00:00,2.0347988605499268
1986-01-13 23:00:00,2.0347988605499268
1986-01-14 23:00:00,2.0293009281158447
1986-01-15 23:00:00,2.078794240951538
1986-01-16 23:00:00,2.106292247772217
1986-01-17 23:00:00,2.1172914505004883
1986-01-20 23:00:00,2.1007936000823975
1986-01-21 23:00:00,2.084293842315674
1986-01-22 23:00:00,2.0457987785339355
1986-01-23 23:00:00,2.051297664642334
1986-01-24 23:00:00,2.095292806625366
1986-01-27 23:00:00,2.1007936000823975
1986-01-28 23:00:00,2.095292806625366
1986-01-29 23:00:00,2.122790575027466
1986-01-30 23:00:00,2.133789300918579
1986-01-31 23:00:00,2.1612868309020996
1986-02-03 23:00:00,2.1832854747772217
1986-02-04 23:00:00,2.194283962249756
1986-02-05 23:00:00,2.2217824459075928
1986-02-06 23:00:00,2.2602779865264893
1986-02-07 23:00:00,2.2987723350524902
1986-02-10 23:00:00,2.359267473220825
1986-02-11 23:00:00,2.4397799968719482
1986-02-12 23:00:00,2.395421028137207
1986-02-13 23:00:00,2.4397799968719482
1986-02-14 23:00:00,2.4730491638183594
1986-02-18 23:00:00,2.5285000801086426
1986-02-19 23:00:00,2.5451338291168213
1986-02-20 23:00:00,2.53958797454834
1986-02-21 23:00:00,2.578404664993286
1986-02-24 23:00:00,2.589494466781616
1986-02-25 23:00:00,2.561770439147949
1986-02-26 23:00:00,2.58394718170166
1986-02-27 23:00:00,2.6005847454071045
1986-02-28 23:00:00,2.7281177043914795
1986-03-03 23:00:00,2.644942283630371
1986-03-04 23:00:00,2.672668695449829
1986-03-05 23:00:00,2.683757781982422
1986-03-06 23:00:00,2.8334717750549316
1986-03-07 23:00:00,2.8057475090026855
1986-03-10 23:00:00,2.7392077445983887
1986-03-11 23:00:00,2.8002023696899414
1986-03-12 23:00:00,2.850106954574585
1986-03-13 23:00:00,2.872286796569824
1986-03-14 23:00:00,2.8611977100372314
1986-03-17 23:00:00,2.8334717750549316
1986-03-18 23:00:00,2.8223812580108643
1986-03-19 23:00:00,2.8057475090026855
1986-03-20 23:00:00,2.8611977100372314
1986-03-21 23:00:00,2.8944664001464844
1986-03-24 23:00:00,2.9111013412475586
1986-03-25 23:00:00,2.877830743789673
1986-03-26 23:00:00,2.8556511402130127
1986-03-27 23:00:00,2.8445606231689453
1986-03-31 23:00:00,2.8667402267456055
1986-04-01 23:00:00,2.8445606231689453
1986-04-02 23:00:00,2.8556511402130127
1986-04-03 23:00:00,2.8279247283935547
1986-04-04 23:00:00,2.69484806060791
1986-04-07 23:00:00,2.717029094696045
1986-04-08 23:00:00,2.7502963542938232
1986-04-09 23:00:00,2.7059383392333984
1986-04-10 23:00:00,2.69484806060791
1986-04-11 23:00:00,2.7059383392333984
1986-04-14 23:00:00,2.7059383392333984
1986-04-15 23:00:00,2.7114830017089844
1986-04-16 23:00:00,2.9277360439300537
1986-04-17 23:00:00,2.8390157222747803
1986-04-18 23:00:00,2.850106954574585
1986-04-21 23:00:00,2.8667402267456055
1986-04-22 23:00:00,2.9277360439300537
1986-04-23 23:00:00,2.9277360439300537
1986-04-24 23:00:00,2.9111013412475586
1986-04-25 23:00:00,2.9221909046173096
1986-04-28 23:00:00,2.9221909046173096
1986-04-29 23:00:00,2.872286796569824
1986-04-30 23:00:00,2.883376359939575
1986-05-01 23:00:00,2.9221909046173096
1986-05-02 23:00:00,2.9111013412475586
1986-05-05 23:00:00,2.916646718978882
1986-05-06 23:00:00,2.89340877532959
1986-05-07 23:00:00,2.943681240081787
1986-05-08 23:00:00,2.876652717590332
1986-05-09 23:00:00,2.831965923309326
1986-05-12 23:00:00,2.7872812747955322
1986-05-13 23:00:00,2.753767251968384
1986-05-14 23:00:00,2.7258365154266357
1986-05-15 23:00:00,2.669981002807617
1986-05-16 23:00:00,2.6811516284942627
1986-05-19 23:00:00,2.7202529907226562
1986-05-20 23:00:00,2.764937162399292
1986-05-21 23:00:00,2.7705237865448
1986-05-22 23:00:00,2.8263802528381348
1986-05-23 23:00:00,2.8654801845550537
1986-05-27 23:00:00,2.854309320449829
1986-05-28 23:00:00,2.8431386947631836
1986-05-29 23:00:00,2.8375532627105713
1986-05-30 23:00:00,2.820796012878418
1986-06-02 23:00:00,2.8431386947631836
1986-06-03 23:00:00,2.8431386947631836
1986-06-04 23:00:00,2.89340877532959
1986-06-05 23:00:00,2.898996591567993
1986-06-06 23:00:00,2.831965923309326
1986-06-09 23:00:00,2.7258365154266357
1986-06-10 23:00:00,2.7370097637176514
1986-06-11 23:00:00,2.7593510150909424
1986-06-12 23:00:00,2.809624195098877
1986-06-13 23:00:00,2.871066093444824
1986-06-16 23:00:00,2.8822381496429443
1986-06-17 23:00:00,2.848722219467163
1986-06-18 23:00:00,2.831965923309326
1986-06-19 23:00:00,2.7816948890686035
1986-06-20 23:00:00,2.8040380477905273
1986-06-23 23:00:00,2.8263802528381348
1986-06-24 23:00:00,2.8822381496429443
1986-06-25 23:00:00,2.9213383197784424
1986-06-26 23:00:00,3.1056671142578125
1986-06-27 23:00:00,3.0721540451049805
1986-06-30 23:00:00,3.044222593307495
1986-07-01 23:00:00,3.0498108863830566
1986-07-02 23:00:00,3.0274667739868164
1986-07-03 23:00:00,3.0107107162475586
1986-07-07 23:00:00,2.915754556655884
1986-07-08 23:00:00,2.8375532627105713
1986-07-09 23:00:00,2.831965923309326
1986-07-10 23:00:00,2.8040380477905273
1986-07-11 23:00:00,2.8152081966400146
1986-07-14 23:00:00,2.776108980178833
1986-07-15 23:00:00,2.692323684692383
1986-07-16 23:00:00,2.6867377758026123
1986-07-17 23:00:00,2.73142409324646
1986-07-18 23:00:00,2.7816948890686035
1986-07-21 23:00:00,2.7593510150909424
1986-07-22 23:00:00,2.8152081966400146
1986-07-23 23:00:00,2.848722219467163
1986-07-24 23:00:00,2.8822381496429443
1986-07-25 23:00:00,2.89340877532959
1986-07-28 23:00:00,2.792867422103882
1986-07-29 23:00:00,2.7816948890686035
1986-07-30 23:00:00,2.753767251968384
1986-07-31 23:00:00,2.753767251968384
1986-08-01 23:00:00,2.7146661281585693
1986-08-04 23:00:00,2.809624195098877
1986-08-05 23:00:00,2.7805776596069336
1986-08-06 23:00:00,2.7242929935455322
1986-08-07 23:00:00,2.701777458190918
1986-08-08 23:00:00,2.713036060333252
1986-08-11 23:00:00,2.8312385082244873
1986-08-12 23:00:00,2.853752374649048
1986-08-13 23:00:00,2.9494402408599854
1986-08-14 23:00:00,2.966325521469116
1986-08-15 23:00:00,2.9775846004486084
1986-08-18 23:00:00,2.9606964588165283
1986-08-19 23:00:00,2.9438130855560303
1986-08-20 23:00:00,3.011355400085449
1986-08-21 23:00:00,3.0394980907440186
1986-08-22 23:00:00,3.0169851779937744
1986-08-25 23:00:00,2.988842487335205
1986-08-26 23:00:00,3.050757884979248
1986-08-27 23:00:00,3.073272466659546
1986-08-28 23:00:00,3.112673759460449
1986-08-29 23:00:00,3.140817403793335
1986-09-02 23:00:00,3.050757884979248
1986-09-03 23:00:00,3.107043981552124
1986-09-04 23:00:00,3.2027335166931152
1986-09-05 23:00:00,3.123931407928467
1986-09-08 23:00:00,3.152073860168457
1986-09-09 23:00:00,3.118299722671509
1986-09-10 23:00:00,3.1745872497558594
1986-09-11 23:00:00,3.050757884979248
1986-09-12 23:00:00,3.0057284832000732
1986-09-15 23:00:00,3.0394980907440186
1986-09-16 23:00:00,3.0451290607452393
1986-09-17 23:00:00,3.0057284832000732
1986-09-18 23:00:00,3.011355400085449
1986-09-19 23:00:00,3.0338711738586426
1986-09-22 23:00:00,3.0338711738586426
1986-09-23 23:00:00,3.078899383544922
1986-09-24 23:00:00,3.084529399871826
1986-09-25 23:00:00,3.0169851779937744
1986-09-26 23:00:00,2.9944698810577393
1986-09-29 23:00:00,2.881896495819092
1986-09-30 23:00:00,2.887524366378784
1986-10-01 23:00:00,2.9269256591796875
1986-10-02 23:00:00,2.921297550201416
1986-10-03 23:00:00,2.9100394248962402
1986-10-06 23:00:00,2.9044113159179688
1986-10-07 23:00:00,2.9100394248962402
1986-10-08 23:00:00,2.9494402408599854
1986-10-09 23:00:00,2.9606964588165283
1986-10-10 23:00:00,2.938185691833496
1986-10-13 23:00:00,2.9156672954559326
1986-10-14 23:00:00,2.9606964588165283
1986-10-15 23:00:00,3.050757884979248
1986-10-16 23:00:00,3.084529399871826
1986-10-17 23:00:00,3.101417064666748
1986-10-20 23:00:00,3.0620150566101074
1986-10-21 23:00:00,3.0451290607452393
1986-10-22 23:00:00,3.084529399871826
1986-10-23 23:00:00,3.107043981552124
1986-10-24 23:00:00,3.090160369873047
1986-10-27 23:00:00,3.084529399871826
1986-10-28 23:00:00,3.101417064666748
1986-10-29 23:00:00,3.1464455127716064
1986-10-30 23:00:00,3.1351869106292725
1986-10-31 23:00:00,3.112673759460449
1986-11-03 23:00:00,3.152073860168457
1986-11-04 23:00:00,3.1454994678497314
1986-11-05 23:00:00,3.1908411979675293
1986-11-06 23:00:00,3.1965065002441406
1986-11-07 23:00:00,3.2078423500061035
1986-11-10 23:00:00,3.168170213699341
1986-11-11 23:00:00,3.185171365737915
1986-11-12 23:00:00,3.162503480911255
1986-11-13 23:00:00,3.1511659622192383
1986-11-14 23:00:00,3.224846839904785
1986-11-17 23:00:00,3.1738369464874268
1986-11-18 23:00:00,3.1114962100982666
1986-11-19 23:00:00,3.1738369464874268
1986-11-20 23:00:00,3.168170213699341
1986-11-21 23:00:00,3.185171365737915
1986-11-24 23:00:00,3.213510036468506
1986-11-25 23:00:00,3.2871899604797363
1986-11-26 23:00:00,3.338196277618408
1986-11-28 23:00:00,3.366534471511841
1986-12-01 23:00:00,3.349531412124634
1986-12-02 23:00:00,3.4118754863739014
1986-12-03 23:00:00,3.4685516357421875
1986-12-04 23:00:00,3.434547185897827
1986-12-05 23:00:00,3.3948726654052734
1986-12-08 23:00:00,3.3948726654052734
1986-12-09 23:00:00,3.343865394592285
1986-12-10 23:00:00,3.389204740524292
1986-12-11 23:00:00,3.3552002906799316
1986-12-12 23:00:00,3.332528829574585
1986-12-15 23:00:00,3.292856454849243
1986-12-16 23:00:00,3.343865394592285
1986-12-17 23:00:00,3.366534471511841
1986-12-18 23:00:00,3.3211941719055176
1986-12-19 23:00:00,3.4005396366119385
1986-12-22 23:00:00,3.343865394592285
1986-12-23 23:00:00,3.338196277618408
1986-12-24 23:00:00,3.332528829574585
1986-12-26 23:00:00,3.3268637657165527
1986-12-29 23:00:00,3.3211941719055176
1986-12-30 23:00:00,3.2758541107177734
1986-12-31 23:00:00,3.304192543029785
1987-01-02 23:00:00,3.377868890762329
1987-01-05 23:00:00,3.417543888092041
1987-01-06 23:00:00,3.417543888092041
1987-01-07 23:00:00,3.4685516357421875
1987-01-08 23:00:00,3.536560535430908
1987-01-09 23:00:00,3.559232234954834
1987-01-12 23:00:00,3.6839165687561035
1987-01-13 23:00:00,3.6385767459869385
1987-01-14 23:00:00,3.655580759048462
1987-01-15 23:00:00,3.6725850105285645
1987-01-16 23:00:00,3.6839165687561035
1987-01-19 23:00:00,3.6725850105285645
1987-01-20 23:00:00,3.7745985984802246
1987-01-21 23:00:00,3.6272380352020264
1987-01-22 23:00:00,3.7405941486358643
1987-01-23 23:00:00,3.7745985984802246
1987-01-26 23:00:00,3.7179253101348877
1987-01-27 23:00:00,3.7802672386169434
1987-01-28 23:00:00,3.84260892868042
1987-01-29 23:00:00,3.8936169147491455
1987-01-30 23:00:00,3.9446263313293457
1987-02-02 23:00:00,4.012636184692383
1987-02-03 23:00:00,4.001303195953369
1987-02-04 23:00:00,4.012636184692383
1987-02-05 23:00:00,3.9559624195098877
1987-02-06 23:00:00,3.978631019592285
1987-02-09 23:00:00,3.9446263313293457
1987-02-10 23:00:00,3.832392692565918
1987-02-11 23:00:00,3.912234306335449
1987-02-12 23:00:00,3.8552064895629883
1987-02-13 23:00:00,3.917935371398926
1987-02-17 23:00:00,3.900829315185547
1987-02-18 23:00:00,3.9806714057922363
1987-02-19 23:00:00,3.9806714057922363
1987-02-20 23:00:00,3.946453332901001
1987-02-23 23:00:00,3.883718490600586
1987-02-24 23:00:00,3.8609061241149902
1987-02-25 23:00:00,3.832392692565918
1987-02-26 23:00:00,3.8609061241149902
1987-02-27 23:00:00,3.843801498413086
1987-03-02 23:00:00,3.866607904434204
1987-03-03 23:00:00,3.8780148029327393
1987-03-04 23:00:00,3.866607904434204
1987-03-05 23:00:00,3.8552064895629883
1987-03-06 23:00:00,3.883718490600586
1987-03-09 23:00:00,3.96926212310791
1987-03-10 23:00:00,3.9806714057922363
1987-03-11 23:00:00,3.986372232437134
1987-03-12 23:00:00,4.009183883666992
1987-03-13 23:00:00,3.96926212310791
1987-03-16 23:00:00,3.912234306335449
1987-03-17 23:00:00,4.0719170570373535
1987-03-18 23:00:00,4.106135845184326
1987-03-19 23:00:00,4.185977935791016
1987-03-20 23:00:00,4.334254741668701
1987-03-23 23:00:00,4.471125602722168
1987-03-24 23:00:00,4.379878044128418
1987-03-25 23:00:00,4.402688980102539
1987-03-26 23:00:00,4.414093971252441
1987-03-27 23:00:00,4.208788871765137
1987-03-30 23:00:00,4.049103736877441
1987-03-31 23:00:00,4.026291370391846
1987-04-01 23:00:00,4.128945827484131
1987-04-02 23:00:00,4.197381496429443
1987-04-03 23:00:00,4.288628101348877
1987-04-06 23:00:00,4.391279697418213
1987-04-07 23:00:00,4.322847843170166
1987-04-08 23:00:00,4.277223110198975
1987-04-09 23:00:00,4.117541313171387
1987-04-10 23:00:00,4.0719170570373535
1987-04-13 23:00:00,3.832392692565918
1987-04-14 23:00:00,3.7297379970550537
1987-04-15 23:00:00,3.786768674850464
1987-04-16 23:00:00,3.9236388206481934
1987-04-20 23:00:00,3.832392692565918
1987-04-21 23:00:00,3.900829315185547
1987-04-22 23:00:00,3.7411446571350098
1987-04-23 23:00:00,3.672708749771118
1987-04-24 23:00:00,3.5472445487976074
1987-04-27 23:00:00,3.6042726039886475
1987-04-28 23:00:00,3.6042726039886475
1987-04-29 23:00:00,3.684114456176758
1987-04-30 23:00:00,3.7981743812561035
1987-05-01 23:00:00,3.866607904434204
1987-05-04 23:00:00,3.7981743812561035
1987-05-05 23:00:00,3.845933675765991
1987-05-06 23:00:00,3.926295518875122
1987-05-07 23:00:00,3.903334856033325
1987-05-08 23:00:00,3.926295518875122
1987-05-11 23:00:00,3.914811611175537
1987-05-12 23:00:00,3.8688971996307373
1987-05-13 23:00:00,3.834453582763672
1987-05-14 23:00:00,3.788532018661499
1987-05-15 23:00:00,3.6737241744995117
1987-05-18 23:00:00,3.616325855255127
1987-05-19 23:00:00,3.478562116622925
1987-05-20 23:00:00,3.4211573600769043
1987-05-21 23:00:00,3.3752353191375732
1987-05-22 23:00:00,3.4211573600769043
1987-05-26 23:00:00,3.570404052734375
1987-05-27 23:00:00,3.5818827152252197
1987-05-28 23:00:00,3.547445058822632
1987-05-29 23:00:00,3.570404052734375
1987-06-01 23:00:00,3.604846239089966
1987-06-02 23:00:00,3.6622488498687744
1987-06-03 23:00:00,3.639285087585449
1987-06-04 23:00:00,3.7426083087921143
1987-06-05 23:00:00,3.719651937484741
1987-06-08 23:00:00,3.696685552597046
1987-06-09 23:00:00,3.719651937484741
1987-06-10 23:00:00,3.7540886402130127
1987-06-11 23:00:00,3.7770497798919678
1987-06-12 23:00:00,3.788532018661499
1987-06-15 23:00:00,3.834453582763672
1987-06-16 23:00:00,4.0296196937561035
1987-06-17 23:00:00,4.236268520355225
1987-06-18 23:00:00,4.408472061157227
1987-06-19 23:00:00,4.362550735473633
1987-06-22 23:00:00,4.5577192306518555
1987-06-23 23:00:00,4.592161655426025
1987-06-24 23:00:00,4.592161655426025
1987-06-25 23:00:00,4.431433200836182
1987-06-26 23:00:00,4.45439338684082
1987-06-29 23:00:00,4.431433200836182
1987-06-30 23:00:00,4.316627025604248
1987-07-01 23:00:00,4.224786758422852
1987-07-02 23:00:00,4.190346717834473
1987-07-06 23:00:00,4.247745990753174
1987-07-07 23:00:00,4.431433200836182
1987-07-08 23:00:00,4.534757614135742
1987-07-09 23:00:00,4.534757614135742
1987-07-10 23:00:00,4.534757614135742
1987-07-13 23:00:00,4.511796474456787
1987-07-14 23:00:00,4.45439338684082
1987-07-15 23:00:00,4.431433200836182
1987-07-16 23:00:00,4.45439338684082
1987-07-17 23:00:00,4.442912578582764
1987-07-20 23:00:00,4.385509967803955
1987-07-21 23:00:00,4.247745990753174
1987-07-22 23:00:00,4.442912578582764
1987-07-23 23:00:00,4.362550735473633
1987-07-24 23:00:00,4.328110218048096
1987-07-27 23:00:00,4.339590549468994
1987-07-28 23:00:00,4.328110218048096
1987-07-29 23:00:00,4.351070880889893
1987-07-30 23:00:00,4.442912578582764
1987-07-31 23:00:00,4.5577192306518555
1987-08-03 23:00:00,4.511796474456787
1987-08-04 23:00:00,4.444379806518555
1987-08-05 23:00:00,4.455924987792969
1987-08-06 23:00:00,4.513644218444824
1987-08-07 23:00:00,4.4905548095703125
1987-08-10 23:00:00,4.536730766296387
1987-08-11 23:00:00,4.4905548095703125
1987-08-12 23:00:00,4.525187015533447
1987-08-13 23:00:00,4.5944504737854
1987-08-14 23:00:00,4.548276424407959
1987-08-17 23:00:00,4.513644218444824
1987-08-18 23:00:00,4.398204326629639
1987-08-19 23:00:00,4.421291828155518
1987-08-20 23:00:00,4.409745693206787
1987-08-21 23:00:00,4.467467784881592
1987-08-24 23:00:00,4.409745693206787
1987-08-25 23:00:00,4.386660575866699
1987-08-26 23:00:00,4.432834148406982
1987-08-27 23:00:00,4.479010581970215
1987-08-28 23:00:00,4.363572120666504
1987-08-31 23:00:00,4.4905548095703125
1987-09-01 23:00:00,4.559819221496582
1987-09-02 23:00:00,4.502097129821777
1987-09-03 23:00:00,4.3289408683776855
1987-09-04 23:00:00,4.248134136199951
1987-09-08 23:00:00,4.178871154785156
1987-09-09 23:00:00,4.086519241333008
1987-09-10 23:00:00,4.098064422607422
1987-09-11 23:00:00,4.178871154785156
1987-09-14 23:00:00,4.21350622177124
1987-09-15 23:00:00,4.132697582244873
1987-09-16 23:00:00,4.109609127044678
1987-09-17 23:00:00,4.2365922927856445
1987-09-18 23:00:00,4.259679317474365
1987-09-21 23:00:00,4.167328834533691
1987-09-22 23:00:00,4.21350622177124
1987-09-23 23:00:00,4.21350622177124
1987-09-24 23:00:00,4.201959133148193
1987-09-25 23:00:00,4.201959133148193
1987-09-28 23:00:00,4.2250471115112305
1987-09-29 23:00:00,4.248134136199951
1987-09-30 23:00:00,4.178871154785156
1987-10-01 23:00:00,4.305853843688965
1987-10-02 23:00:00,4.294310092926025
1987-10-05 23:00:00,4.3289408683776855
1987-10-06 23:00:00,4.2712225914001465
1987-10-07 23:00:00,4.201959133148193
1987-10-08 23:00:00,4.1442413330078125
1987-10-09 23:00:00,4.086519241333008
1987-10-12 23:00:00,4.040347099304199
1987-10-13 23:00:00,4.132697582244873
1987-10-14 23:00:00,4.040347099304199
1987-10-15 23:00:00,3.9018197059631348
1987-10-16 23:00:00,3.6940276622772217
1987-10-19 23:00:00,2.9321365356445312
1987-10-20 23:00:00,2.862873077392578
1987-10-21 23:00:00,3.278451442718506
1987-10-22 23:00:00,3.047574996948242
1987-10-23 23:00:00,2.95522403717041
1987-10-26 23:00:00,2.747434377670288
1987-10-27 23:00:00,2.724346876144409
1987-10-28 23:00:00,2.597365617752075
1987-10-29 23:00:00,2.712804079055786
1987-10-30 23:00:00,2.8282430171966553
1987-11-02 23:00:00,3.0706613063812256
1987-11-03 23:00:00,3.1399266719818115
1987-11-04 23:00:00,3.074704170227051
1987-11-05 23:00:00,3.167876958847046
1987-11-06 23:00:00,3.074704170227051
1987-11-09 23:00:00,2.8534209728240967
1987-11-10 23:00:00,2.7020137310028076
1987-11-11 23:00:00,2.8534209728240967
1987-11-12 23:00:00,3.00482439994812
1987-11-13 23:00:00,2.8883585929870605
1987-11-16 23:00:00,2.969884157180786
1987-11-17 23:00:00,3.00482439994812
1987-11-18 23:00:00,3.109645366668701
1987-11-19 23:00:00,3.097996950149536
1987-11-20 23:00:00,3.26104998588562
1987-11-23 23:00:00,3.2726964950561523
1987-11-24 23:00:00,3.3076372146606445
1987-11-25 23:00:00,3.214465856552124
1987-11-27 23:00:00,3.1329379081726074
1987-11-30 23:00:00,2.9815330505371094
1987-12-01 23:00:00,3.051412343978882
1987-12-02 23:00:00,3.0630574226379395
1987-12-03 23:00:00,2.90000581741333
1987-12-04 23:00:00,2.8767130374908447
1987-12-07 23:00:00,2.946591377258301
1987-12-08 23:00:00,2.9582390785217285
1987-12-09 23:00:00,3.109645366668701
1987-12-10 23:00:00,2.9931788444519043
1987-12-11 23:00:00,3.097996950149536
1987-12-14 23:00:00,3.1911704540252686
1987-12-15 23:00:00,3.2843422889709473
1987-12-16 23:00:00,3.2843422889709473
1987-12-17 23:00:00,3.2377567291259766
1987-12-18 23:00:00,3.3192825317382812
1987-12-21 23:00:00,3.26104998588562
1987-12-22 23:00:00,3.2377567291259766
1987-12-23 23:00:00,3.26104998588562
1987-12-24 23:00:00,3.2377567291259766
1987-12-28 23:00:00,3.1329379081726074
1987-12-29 23:00:00,3.1562302112579346
1987-12-30 23:00:00,3.144584894180298
1987-12-31 23:00:00,3.0863521099090576
1988-01-04 23:00:00,3.330929756164551
1988-01-05 23:00:00,3.3542227745056152
1988-01-06 23:00:00,3.389162063598633
1988-01-07 23:00:00,3.377516508102417
1988-01-08 23:00:00,3.051412343978882
1988-01-11 23:00:00,3.121290445327759
1988-01-12 23:00:00,3.121290445327759
1988-01-13 23:00:00,3.074704170227051
1988-01-14 23:00:00,3.074704170227051
1988-01-15 23:00:00,3.097996950149536
1988-01-18 23:00:00,3.097996950149536
1988-01-19 23:00:00,3.121290445327759
1988-01-20 23:00:00,2.9931788444519043
1988-01-21 23:00:00,2.934943437576294
1988-01-22 23:00:00,3.0164706707000732
1988-01-25 23:00:00,3.179523468017578
1988-01-26 23:00:00,3.1329379081726074
1988-01-27 23:00:00,3.051412343978882
1988-01-28 23:00:00,3.1911704540252686
1988-01-29 23:00:00,3.1911704540252686
1988-02-01 23:00:00,3.2377567291259766
1988-02-02 23:00:00,3.2377567291259766
1988-02-03 23:00:00,3.1911704540252686
1988-02-04 23:00:00,3.144584894180298
1988-02-05 23:00:00,3.097996950149536
1988-02-08 23:00:00,3.1329379081726074
1988-02-09 23:00:00,3.167876958847046
1988-02-10 23:00:00,3.1911704540252686
1988-02-11 23:00:00,3.22611141204834
1988-02-12 23:00:00,3.3192825317382812
1988-02-16 23:00:00,3.4179446697235107
1988-02-17 23:00:00,3.476672649383545
1988-02-18 23:00:00,3.511908531188965
1988-02-19 23:00:00,3.7115821838378906
1988-02-22 23:00:00,3.746819496154785
1988-02-23 23:00:00,3.699838638305664
1988-02-24 23:00:00,3.746819496154785
1988-02-25 23:00:00,3.6646008491516113
1988-02-26 23:00:00,3.6646008491516113
1988-02-29 23:00:00,3.7350738048553467
1988-03-01 23:00:00,3.699838638305664
1988-03-02 23:00:00,3.746819496154785
1988-03-03 23:00:00,3.8642737865448
1988-03-04 23:00:00,3.8055477142333984
1988-03-07 23:00:00,3.782055139541626
1988-03-08 23:00:00,3.8407838344573975
1988-03-09 23:00:00,3.746819496154785
1988-03-10 23:00:00,3.7115821838378906
1988-03-11 23:00:00,3.6411125659942627
1988-03-14 23:00:00,3.6411125659942627
1988-03-15 23:00:00,3.676347017288208
1988-03-16 23:00:00,3.7233290672302246
1988-03-17 23:00:00,3.7350738048553467
1988-03-18 23:00:00,3.770310878753662
1988-03-21 23:00:00,3.746819496154785
1988-03-22 23:00:00,3.8055477142333984
1988-03-23 23:00:00,3.7350738048553467
1988-03-24 23:00:00,3.676347017288208
1988-03-25 23:00:00,3.6176202297210693
1988-03-28 23:00:00,3.547147035598755
1988-03-29 23:00:00,3.6058743000030518
1988-03-30 23:00:00,3.629368305206299
1988-03-31 23:00:00,3.6646008491516113
1988-04-04 23:00:00,3.699838638305664
1988-04-05 23:00:00,3.7115821838378906
1988-04-06 23:00:00,3.782055139541626
1988-04-07 23:00:00,3.8642737865448
1988-04-08 23:00:00,3.969984292984009
1988-04-11 23:00:00,3.9934778213500977
1988-04-12 23:00:00,3.9817304611206055
1988-04-13 23:00:00,3.969984292984009
1988-04-14 23:00:00,3.7115821838378906
1988-04-15 23:00:00,3.782055139541626
1988-04-18 23:00:00,3.770310878753662
1988-04-19 23:00:00,3.676347017288208
1988-04-20 23:00:00,3.6058743000030518
1988-04-21 23:00:00,3.7233290672302246
1988-04-22 23:00:00,3.82903790473938
1988-04-25 23:00:00,3.8055477142333984
1988-04-26 23:00:00,3.9817304611206055
1988-04-27 23:00:00,4.040458679199219
1988-04-28 23:00:00,4.052203178405762
1988-04-29 23:00:00,4.028714179992676
1988-05-02 23:00:00,3.958239793777466
1988-05-03 23:00:00,3.969984292984009
1988-05-04 23:00:00,3.9392309188842773
1988-05-05 23:00:00,3.880079507827759
1988-05-06 23:00:00,3.880079507827759
1988-05-09 23:00:00,3.8682501316070557
1988-05-10 23:00:00,3.880079507827759
1988-05-11 23:00:00,3.8682501316070557
1988-05-12 23:00:00,3.9037411212921143
1988-05-13 23:00:00,4.045695781707764
1988-05-16 23:00:00,4.033864974975586
1988-05-17 23:00:00,4.022037029266357
1988-05-18 23:00:00,3.9747166633605957
1988-05-19 23:00:00,3.8682501316070557
1988-05-20 23:00:00,3.927398681640625
1988-05-23 23:00:00,3.8209333419799805
1988-05-24 23:00:00,3.8327624797821045
1988-05-25 23:00:00,3.8327624797821045
1988-05-26 23:00:00,3.880079507827759
1988-05-27 23:00:00,3.8327624797821045
1988-05-31 23:00:00,3.8682501316070557
1988-06-01 23:00:00,3.927398681640625
1988-06-02 23:00:00,3.9510574340820312
1988-06-03 23:00:00,4.022037029266357
1988-06-06 23:00:00,4.022037029266357
1988-06-07 23:00:00,3.9510574340820312
1988-06-08 23:00:00,4.0693535804748535
1988-06-09 23:00:00,4.081182479858398
1988-06-10 23:00:00,4.104841709136963
1988-06-13 23:00:00,4.128499984741211
1988-06-14 23:00:00,4.199478626251221
1988-06-15 23:00:00,4.282283306121826
1988-06-16 23:00:00,4.211305618286133
1988-06-17 23:00:00,4.163990497589111
1988-06-20 23:00:00,4.187647342681885
1988-06-21 23:00:00,4.234967231750488
1988-06-22 23:00:00,4.376919746398926
1988-06-23 23:00:00,4.388749599456787
1988-06-24 23:00:00,4.365090370178223
1988-06-27 23:00:00,4.294113636016846
1988-06-28 23:00:00,4.294113636016846
1988-06-29 23:00:00,4.246795177459717
1988-06-30 23:00:00,4.317774295806885
1988-07-01 23:00:00,4.305944442749023
1988-07-05 23:00:00,4.341431617736816
1988-07-06 23:00:00,4.294113636016846
1988-07-07 23:00:00,4.234967231750488
1988-07-08 23:00:00,4.246795177459717
1988-07-11 23:00:00,4.246795177459717
1988-07-12 23:00:00,4.282283306121826
1988-07-13 23:00:00,4.282283306121826
1988-07-14 23:00:00,4.305944442749023
1988-07-15 23:00:00,4.294113636016846
1988-07-18 23:00:00,4.246795177459717
1988-07-19 23:00:00,4.187647342681885
1988-07-20 23:00:00,4.199478626251221
1988-07-21 23:00:00,4.175817966461182
1988-07-22 23:00:00,4.11667013168335
1988-07-25 23:00:00,4.140329837799072
1988-07-26 23:00:00,4.128499984741211
1988-07-27 23:00:00,4.0693535804748535
1988-07-28 23:00:00,4.128499984741211
1988-07-29 23:00:00,4.246795177459717
1988-08-01 23:00:00,4.2586259841918945
1988-08-02 23:00:00,4.211305618286133
1988-08-03 23:00:00,4.223135471343994
1988-08-04 23:00:00,4.195957660675049
1988-08-05 23:00:00,4.195957660675049
1988-08-08 23:00:00,4.160196781158447
1988-08-09 23:00:00,4.1244330406188965
1988-08-10 23:00:00,3.957551956176758
1988-08-11 23:00:00,3.897947311401367
1988-08-12 23:00:00,3.9456300735473633
1988-08-15 23:00:00,3.9098703861236572
1988-08-16 23:00:00,3.9098703861236572
1988-08-17 23:00:00,3.93371319770813
1988-08-18 23:00:00,3.981393337249756
1988-08-19 23:00:00,3.9694721698760986
1988-08-22 23:00:00,3.8860297203063965
1988-08-23 23:00:00,3.8860297203063965
1988-08-24 23:00:00,3.957551956176758
1988-08-25 23:00:00,4.005231857299805
1988-08-26 23:00:00,3.957551956176758
1988-08-29 23:00:00,4.029074668884277
1988-08-30 23:00:00,4.064836502075195
1988-08-31 23:00:00,3.981393337249756
1988-09-01 23:00:00,3.9933149814605713
1988-09-02 23:00:00,4.076754093170166
1988-09-06 23:00:00,4.100595951080322
1988-09-07 23:00:00,4.112514972686768
1988-09-08 23:00:00,4.005231857299805
1988-09-09 23:00:00,4.052913188934326
1988-09-12 23:00:00,4.029074668884277
1988-09-13 23:00:00,4.052913188934326
1988-09-14 23:00:00,4.112514972686768
1988-09-15 23:00:00,4.136357307434082
1988-09-16 23:00:00,4.172118663787842
1988-09-19 23:00:00,4.172118663787842
1988-09-20 23:00:00,4.172118663787842
1988-09-21 23:00:00,4.184038162231445
1988-09-22 23:00:00,4.172118663787842
1988-09-23 23:00:00,4.148275375366211
1988-09-26 23:00:00,4.1244330406188965
1988-09-27 23:00:00,4.076754093170166
1988-09-28 23:00:00,4.076754093170166
1988-09-29 23:00:00,4.136357307434082
1988-09-30 23:00:00,4.112514972686768
1988-10-03 23:00:00,4.172118663787842
1988-10-04 23:00:00,4.172118663787842
1988-10-05 23:00:00,4.148275375366211
1988-10-06 23:00:00,4.195957660675049
1988-10-07 23:00:00,4.291321754455566
1988-10-10 23:00:00,4.291321754455566
1988-10-11 23:00:00,4.291321754455566
1988-10-12 23:00:00,4.195957660675049
1988-10-13 23:00:00,4.172118663787842
1988-10-14 23:00:00,4.160196781158447
1988-10-17 23:00:00,4.160196781158447
1988-10-18 23:00:00,4.100595951080322
1988-10-19 23:00:00,4.005231857299805
1988-10-20 23:00:00,4.040993690490723
1988-10-21 23:00:00,4.064836502075195
1988-10-24 23:00:00,3.981393337249756
1988-10-25 23:00:00,3.981393337249756
1988-10-26 23:00:00,3.981393337249756
1988-10-27 23:00:00,3.9694721698760986
1988-10-28 23:00:00,3.957551956176758
1988-10-31 23:00:00,4.088676452636719
1988-11-01 23:00:00,4.029074668884277
1988-11-02 23:00:00,3.981393337249756
1988-11-03 23:00:00,3.957551956176758
1988-11-04 23:00:00,3.8700549602508545
1988-11-07 23:00:00,3.77390456199646
1988-11-08 23:00:00,3.725829839706421
1988-11-09 23:00:00,3.6897733211517334
1988-11-10 23:00:00,3.67775297164917
1988-11-11 23:00:00,3.6056408882141113
1988-11-14 23:00:00,3.6176600456237793
1988-11-15 23:00:00,3.725829839706421
1988-11-16 23:00:00,3.545546293258667
1988-11-17 23:00:00,3.5335259437561035
1988-11-18 23:00:00,3.5695855617523193
1988-11-21 23:00:00,3.545546293258667
1988-11-22 23:00:00,3.5695855617523193
1988-11-23 23:00:00,3.5936200618743896
1988-11-25 23:00:00,3.5575649738311768
1988-11-28 23:00:00,3.545546293258667
1988-11-29 23:00:00,3.5816028118133545
1988-11-30 23:00:00,3.545546293258667
1988-12-01 23:00:00,3.6056408882141113
1988-12-02 23:00:00,3.6176600456237793
1988-12-05 23:00:00,3.7017924785614014
1988-12-06 23:00:00,3.713811159133911
1988-12-07 23:00:00,3.7618846893310547
1988-12-08 23:00:00,3.725829839706421
1988-12-09 23:00:00,3.7618846893310547
1988-12-12 23:00:00,3.713811159133911
1988-12-13 23:00:00,3.7378499507904053
1988-12-14 23:00:00,3.725829839706421
1988-12-15 23:00:00,3.725829839706421
1988-12-16 23:00:00,3.7859222888946533
1988-12-19 23:00:00,3.8580358028411865
1988-12-20 23:00:00,3.77390456199646
1988-12-21 23:00:00,3.797943592071533
1988-12-22 23:00:00,3.8219776153564453
1988-12-23 23:00:00,3.8460161685943604
1988-12-27 23:00:00,3.8580358028411865
1988-12-28 23:00:00,3.8580358028411865
1988-12-29 23:00:00,3.8820748329162598
1988-12-30 23:00:00,3.8820748329162598
1989-01-03 23:00:00,3.8580358028411865
1989-01-04 23:00:00,3.978222608566284
1989-01-05 23:00:00,3.9662063121795654
1989-01-06 23:00:00,4.050337791442871
1989-01-09 23:00:00,4.086391448974609
1989-01-10 23:00:00,4.050337791442871
1989-01-11 23:00:00,4.050337791442871
1989-01-12 23:00:00,4.03831672668457
1989-01-13 23:00:00,4.014280796051025
1989-01-16 23:00:00,4.062357425689697
1989-01-17 23:00:00,4.03831672668457
1989-01-18 23:00:00,4.050337791442871
1989-01-19 23:00:00,3.9902427196502686
1989-01-20 23:00:00,4.03831672668457
1989-01-23 23:00:00,4.03831672668457
1989-01-24 23:00:00,4.086391448974609
1989-01-25 23:00:00,4.11043119430542
1989-01-26 23:00:00,4.158504009246826
1989-01-27 23:00:00,4.23061990737915
1989-01-30 23:00:00,4.278693675994873
1989-01-31 23:00:00,4.32676887512207
1989-02-01 23:00:00,4.290713787078857
1989-02-02 23:00:00,4.278693675994873
1989-02-03 23:00:00,4.242638111114502
1989-02-06 23:00:00,4.2666730880737305
1989-02-07 23:00:00,4.32676887512207
1989-02-08 23:00:00,4.338790416717529
1989-02-09 23:00:00,4.2546563148498535
1989-02-10 23:00:00,4.18254280090332
1989-02-13 23:00:00,4.170525550842285
1989-02-14 23:00:00,4.191357612609863
1989-02-15 23:00:00,4.215587139129639
1989-02-16 23:00:00,4.130792617797852
1989-02-17 23:00:00,4.191357612609863
1989-02-21 23:00:00,4.1792449951171875
1989-02-22 23:00:00,4.1792449951171875
1989-02-23 23:00:00,4.155020713806152
1989-02-24 23:00:00,4.118675708770752
1989-02-27 23:00:00,4.118675708770752
1989-02-28 23:00:00,4.1429057121276855
1989-03-01 23:00:00,4.118675708770752
1989-03-02 23:00:00,4.191357612609863
1989-03-03 23:00:00,4.227702617645264
1989-03-06 23:00:00,4.215587139129639
1989-03-07 23:00:00,4.276157379150391
1989-03-08 23:00:00,4.288270950317383
1989-03-09 23:00:00,4.2398176193237305
1989-03-10 23:00:00,4.26404333114624
1989-03-13 23:00:00,4.251928329467773
1989-03-14 23:00:00,4.251928329467773
1989-03-15 23:00:00,4.2398176193237305
1989-03-16 23:00:00,4.288270950317383
1989-03-17 23:00:00,4.203474521636963
1989-03-20 23:00:00,4.155020713806152
1989-03-21 23:00:00,4.1429057121276855
1989-03-22 23:00:00,4.1671319007873535
1989-03-23 23:00:00,4.1792449951171875
1989-03-27 23:00:00,4.191357612609863
1989-03-28 23:00:00,4.215587139129639
1989-03-29 23:00:00,4.227702617645264
1989-03-30 23:00:00,4.2398176193237305
1989-03-31 23:00:00,4.227702617645264
1989-04-03 23:00:00,4.276157379150391
1989-04-04 23:00:00,4.251928329467773
1989-04-05 23:00:00,4.215587139129639
1989-04-06 23:00:00,4.251928329467773
1989-04-07 23:00:00,4.2398176193237305
1989-04-10 23:00:00,4.215587139129639
1989-04-11 23:00:00,4.215587139129639
1989-04-12 23:00:00,4.203474521636963
1989-04-13 23:00:00,4.203474521636963
1989-04-14 23:00:00,4.276157379150391
1989-04-17 23:00:00,4.276157379150391
1989-04-18 23:00:00,4.251928329467773
1989-04-19 23:00:00,4.288270950317383
1989-04-20 23:00:00,4.312499523162842
1989-04-21 23:00:00,4.300380706787109
1989-04-24 23:00:00,4.300380706787109
1989-04-25 23:00:00,4.276157379150391
1989-04-26 23:00:00,4.251928329467773
1989-04-27 23:00:00,4.312499523162842
1989-04-28 23:00:00,4.300380706787109
1989-05-01 23:00:00,4.360954284667969
1989-05-02 23:00:00,4.312499523162842
1989-05-03 23:00:00,4.373067855834961
1989-05-04 23:00:00,4.3613386154174805
1989-05-05 23:00:00,4.349122524261475
1989-05-08 23:00:00,4.312471866607666
1989-05-09 23:00:00,4.300256729125977
1989-05-10 23:00:00,4.288038730621338
1989-05-11 23:00:00,4.300256729125977
1989-05-12 23:00:00,4.38577127456665
1989-05-15 23:00:00,4.3979902267456055
1989-05-16 23:00:00,4.422421455383301
1989-05-17 23:00:00,4.3979902267456055
1989-05-18 23:00:00,4.422421455383301
1989-05-19 23:00:00,4.446853160858154
1989-05-22 23:00:00,4.471290111541748
1989-05-23 23:00:00,4.410206317901611
1989-05-24 23:00:00,4.373554706573486
1989-05-25 23:00:00,4.422421455383301
1989-05-26 23:00:00,4.422421455383301
1989-05-30 23:00:00,4.3979902267456055
1989-05-31 23:00:00,4.422421455383301
1989-06-01 23:00:00,4.410206317901611
1989-06-02 23:00:00,4.446853160858154
1989-06-05 23:00:00,4.3613386154174805
1989-06-06 23:00:00,4.459070205688477
1989-06-07 23:00:00,4.434638500213623
1989-06-08 23:00:00,4.422421455383301
1989-06-09 23:00:00,4.422421455383301
1989-06-12 23:00:00,4.434638500213623
1989-06-13 23:00:00,4.3979902267456055
1989-06-14 23:00:00,4.373554706573486
1989-06-15 23:00:00,4.3613386154174805
1989-06-16 23:00:00,4.373554706573486
1989-06-19 23:00:00,4.3979902267456055
1989-06-20 23:00:00,4.38577127456665
1989-06-21 23:00:00,4.373554706573486
1989-06-22 23:00:00,4.483506679534912
1989-06-23 23:00:00,4.446853160858154
1989-06-26 23:00:00,4.410206317901611
1989-06-27 23:00:00,4.410206317901611
1989-06-28 23:00:00,4.3979902267456055
1989-06-29 23:00:00,4.300256729125977
1989-06-30 23:00:00,4.312471866607666
1989-07-03 23:00:00,4.312471866607666
1989-07-05 23:00:00,4.263604640960693
1989-07-06 23:00:00,4.263604640960693
1989-07-07 23:00:00,4.288038730621338
1989-07-10 23:00:00,4.288038730621338
1989-07-11 23:00:00,4.324690818786621
1989-07-12 23:00:00,4.373554706573486
1989-07-13 23:00:00,4.324690818786621
1989-07-14 23:00:00,4.373554706573486
1989-07-17 23:00:00,4.324690818786621
1989-07-18 23:00:00,4.275824069976807
1989-07-19 23:00:00,4.300256729125977
1989-07-20 23:00:00,4.226954460144043
1989-07-21 23:00:00,4.324690818786621
1989-07-24 23:00:00,4.324690818786621
1989-07-25 23:00:00,4.38577127456665
1989-07-26 23:00:00,4.3979902267456055
1989-07-27 23:00:00,4.3979902267456055
1989-07-28 23:00:00,4.3979902267456055
1989-07-31 23:00:00,4.373554706573486
1989-08-01 23:00:00,4.38577127456665
1989-08-02 23:00:00,4.3979902267456055
1989-08-03 23:00:00,4.3979902267456055
1989-08-04 23:00:00,4.386159420013428
1989-08-07 23:00:00,4.398481369018555
1989-08-08 23:00:00,4.398481369018555
1989-08-09 23:00:00,4.349199295043945
1989-08-10 23:00:00,4.410798072814941
1989-08-11 23:00:00,4.349199295043945
1989-08-14 23:00:00,4.287594318389893
1989-08-15 23:00:00,4.262955188751221
1989-08-16 23:00:00,4.275273323059082
1989-08-17 23:00:00,4.21367073059082
1989-08-18 23:00:00,4.238312721252441
1989-08-21 23:00:00,4.11510705947876
1989-08-22 23:00:00,4.11510705947876
1989-08-23 23:00:00,4.127427101135254
1989-08-24 23:00:00,4.21367073059082
1989-08-25 23:00:00,4.189030647277832
1989-08-28 23:00:00,4.238312721252441
1989-08-29 23:00:00,4.225995063781738
1989-08-30 23:00:00,4.275273323059082
1989-08-31 23:00:00,4.336878776550293
1989-09-01 23:00:00,4.386159420013428
1989-09-05 23:00:00,4.373839855194092
1989-09-06 23:00:00,4.386159420013428
1989-09-07 23:00:00,4.349199295043945
1989-09-08 23:00:00,4.349199295043945
1989-09-11 23:00:00,4.361520290374756
1989-09-12 23:00:00,4.361520290374756
1989-09-13 23:00:00,4.373839855194092
1989-09-14 23:00:00,4.361520290374756
1989-09-15 23:00:00,4.373839855194092
1989-09-18 23:00:00,4.398481369018555
1989-09-19 23:00:00,4.484725475311279
1989-09-20 23:00:00,4.410798072814941
1989-09-21 23:00:00,4.373839855194092
1989-09-22 23:00:00,4.349199295043945
1989-09-25 23:00:00,4.336878776550293
1989-09-26 23:00:00,4.2506327629089355
1989-09-27 23:00:00,4.262955188751221
1989-09-28 23:00:00,4.238312721252441
1989-09-29 23:00:00,4.225995063781738
1989-10-02 23:00:00,4.164388656616211
1989-10-03 23:00:00,4.152070045471191
1989-10-04 23:00:00,4.21367073059082
1989-10-05 23:00:00,4.201353549957275
1989-10-06 23:00:00,4.201353549957275
1989-10-09 23:00:00,4.262955188751221
1989-10-10 23:00:00,4.312235355377197
1989-10-11 23:00:00,4.299915790557861
1989-10-12 23:00:00,4.2506327629089355
1989-10-13 23:00:00,4.016539573669434
1989-10-16 23:00:00,3.967257022857666
1989-10-17 23:00:00,4.078140735626221
1989-10-18 23:00:00,4.078140735626221
1989-10-19 23:00:00,4.0411810874938965
1989-10-20 23:00:00,3.9302966594696045
1989-10-23 23:00:00,3.967257022857666
1989-10-24 23:00:00,3.967257022857666
1989-10-25 23:00:00,3.9179751873016357
1989-10-26 23:00:00,3.8933324813842773
1989-10-27 23:00:00,3.9179751873016357
1989-10-30 23:00:00,3.819408655166626
1989-10-31 23:00:00,3.8810155391693115
1989-11-01 23:00:00,3.905651569366455
1989-11-02 23:00:00,3.8686916828155518
1989-11-03 23:00:00,3.8440515995025635
1989-11-06 23:00:00,3.794780969619751
1989-11-07 23:00:00,3.6952455043792725
1989-11-08 23:00:00,3.7450132369995117
1989-11-09 23:00:00,3.7450132369995117
1989-11-10 23:00:00,3.732571601867676
1989-11-13 23:00:00,3.732571601867676
1989-11-14 23:00:00,3.682802677154541
1989-11-15 23:00:00,3.7698967456817627
1989-11-16 23:00:00,3.8196659088134766
1989-11-17 23:00:00,3.844552993774414
1989-11-20 23:00:00,3.794780969619751
1989-11-21 23:00:00,3.794780969619751
1989-11-22 23:00:00,3.794780969619751
1989-11-24 23:00:00,3.794780969619751
1989-11-27 23:00:00,3.8694348335266113
1989-11-28 23:00:00,3.931640625
1989-11-29 23:00:00,3.944084405899048
1989-11-30 23:00:00,3.931640625
1989-12-01 23:00:00,3.9689674377441406
1989-12-04 23:00:00,4.056060791015625
1989-12-05 23:00:00,4.031177520751953
1989-12-06 23:00:00,4.043617248535156
1989-12-07 23:00:00,3.9689674377441406
1989-12-08 23:00:00,3.9689674377441406
1989-12-11 23:00:00,3.9689674377441406
1989-12-12 23:00:00,4.006291389465332
1989-12-13 23:00:00,3.9689674377441406
1989-12-14 23:00:00,3.944084405899048
1989-12-15 23:00:00,3.944084405899048
1989-12-18 23:00:00,3.8569905757904053
1989-12-19 23:00:00,3.8569905757904053
1989-12-20 23:00:00,3.9067585468292236
1989-12-21 23:00:00,3.9814083576202393
1989-12-22 23:00:00,3.9565234184265137
1989-12-26 23:00:00,4.018735408782959
1989-12-27 23:00:00,4.056060791015625
1989-12-28 23:00:00,3.9565234184265137
1989-12-29 23:00:00,3.9565234184265137
1990-01-02 23:00:00,4.018735408782959
1990-01-03 23:00:00,4.130712032318115
1990-01-04 23:00:00,4.093386650085449
1990-01-05 23:00:00,4.043617248535156
1990-01-08 23:00:00,4.105829238891602
1990-01-09 23:00:00,4.080946445465088
1990-01-10 23:00:00,4.043617248535156
1990-01-11 23:00:00,4.031177520751953
1990-01-12 23:00:00,3.9689674377441406
1990-01-15 23:00:00,3.9814083576202393
1990-01-16 23:00:00,4.031177520751953
1990-01-17 23:00:00,3.9814083576202393
1990-01-18 23:00:00,4.043617248535156
1990-01-19 23:00:00,3.9565234184265137
1990-01-22 23:00:00,3.832108974456787
1990-01-23 23:00:00,3.9191999435424805
1990-01-24 23:00:00,3.9814083576202393
1990-01-25 23:00:00,3.931640625
1990-01-26 23:00:00,3.931640625
1990-01-29 23:00:00,3.944084405899048
1990-01-30 23:00:00,3.931640625
1990-01-31 23:00:00,3.9565234184265137
1990-02-01 23:00:00,3.9067585468292236
1990-02-02 23:00:00,3.931640625
1990-02-05 23:00:00,3.931640625
1990-02-06 23:00:00,3.9565234184265137
1990-02-07 23:00:00,3.944084405899048
1990-02-08 23:00:00,3.931640625
1990-02-09 23:00:00,3.9689674377441406
1990-02-12 23:00:00,3.931640625
1990-02-13 23:00:00,3.969831943511963
1990-02-14 23:00:00,4.0075201988220215
1990-02-15 23:00:00,3.9823954105377197
1990-02-16 23:00:00,3.9823954105377197
1990-02-20 23:00:00,3.9195821285247803
1990-02-21 23:00:00,3.932142972946167
1990-02-22 23:00:00,3.881897211074829
1990-02-23 23:00:00,3.9195821285247803
1990-02-26 23:00:00,3.932142972946167
1990-02-27 23:00:00,3.9823954105377197
1990-02-28 23:00:00,4.020081520080566
1990-03-01 23:00:00,4.0075201988220215
1990-03-02 23:00:00,4.108020782470703
1990-03-05 23:00:00,4.095460414886475
1990-03-06 23:00:00,4.108020782470703
1990-03-07 23:00:00,4.13314962387085
1990-03-08 23:00:00,4.158272743225098
1990-03-09 23:00:00,4.070335865020752
1990-03-12 23:00:00,4.108020782470703
1990-03-13 23:00:00,4.095460414886475
1990-03-14 23:00:00,4.145711898803711
1990-03-15 23:00:00,4.158272743225098
1990-03-16 23:00:00,4.195964336395264
1990-03-19 23:00:00,4.2210869789123535
1990-03-20 23:00:00,4.2210869789123535
1990-03-21 23:00:00,4.246214389801025
1990-03-22 23:00:00,4.246214389801025
1990-03-23 23:00:00,4.246214389801025
1990-03-26 23:00:00,4.258774757385254
1990-03-27 23:00:00,4.2336530685424805
1990-03-28 23:00:00,4.271337985992432
1990-03-29 23:00:00,4.258774757385254
1990-03-30 23:00:00,4.29646635055542
1990-04-02 23:00:00,4.258774757385254
1990-04-03 23:00:00,4.321590900421143
1990-04-04 23:00:00,4.359277248382568
1990-04-05 23:00:00,4.321590900421143
1990-04-06 23:00:00,4.283902645111084
1990-04-09 23:00:00,4.271337985992432
1990-04-10 23:00:00,4.283902645111084
1990-04-11 23:00:00,4.321590900421143
1990-04-12 23:00:00,4.309029579162598
1990-04-16 23:00:00,4.29646635055542
1990-04-17 23:00:00,4.309029579162598
1990-04-18 23:00:00,4.359277248382568
1990-04-19 23:00:00,4.48490571975708
1990-04-20 23:00:00,4.560281753540039
1990-04-23 23:00:00,4.434653282165527
1990-04-24 23:00:00,4.5225934982299805
1990-04-25 23:00:00,4.535157680511475
1990-04-26 23:00:00,4.623095989227295
1990-04-27 23:00:00,4.572843551635742
1990-04-30 23:00:00,4.497467041015625
1990-05-01 23:00:00,4.535157680511475
1990-05-02 23:00:00,4.472344875335693
1990-05-03 23:00:00,4.535157680511475
1990-05-04 23:00:00,4.603126525878906
1990-05-07 23:00:00,4.6538519859313965
1990-05-08 23:00:00,4.577764987945557
1990-05-09 23:00:00,4.6538519859313965
1990-05-10 23:00:00,4.6284894943237305
1990-05-11 23:00:00,4.691891670227051
1990-05-14 23:00:00,4.679210662841797
1990-05-15 23:00:00,4.742614269256592
1990-05-16 23:00:00,4.8060173988342285
1990-05-17 23:00:00,4.8060173988342285
1990-05-18 23:00:00,4.844061374664307
1990-05-21 23:00:00,4.8947834968566895
1990-05-22 23:00:00,4.920146465301514
1990-05-23 23:00:00,4.920146465301514
1990-05-24 23:00:00,4.907464981079102
1990-05-25 23:00:00,4.932827949523926
1990-05-29 23:00:00,5.021591663360596
1990-05-30 23:00:00,5.046954154968262
1990-05-31 23:00:00,5.046954154968262
1990-06-01 23:00:00,5.084996223449707
1990-06-04 23:00:00,5.148399829864502
1990-06-05 23:00:00,5.0723161697387695
1990-06-06 23:00:00,5.021591663360596
1990-06-07 23:00:00,4.86942195892334
1990-06-08 23:00:00,4.767973899841309
1990-06-11 23:00:00,4.920146465301514
1990-06-12 23:00:00,4.920146465301514
1990-06-13 23:00:00,4.8313798904418945
1990-06-14 23:00:00,4.856741428375244
1990-06-15 23:00:00,4.767973899841309
1990-06-18 23:00:00,4.767973899841309
1990-06-19 23:00:00,4.86942195892334
1990-06-20 23:00:00,4.8060173988342285
1990-06-21 23:00:00,4.818699359893799
1990-06-22 23:00:00,4.8313798904418945
1990-06-25 23:00:00,4.856741428375244
1990-06-26 23:00:00,4.996232509613037
1990-06-27 23:00:00,4.704572677612305
1990-06-28 23:00:00,4.844061374664307
1990-06-29 23:00:00,4.86942195892334
1990-07-02 23:00:00,4.8947834968566895
1990-07-03 23:00:00,4.945507526397705
1990-07-05 23:00:00,4.907464981079102
1990-07-06 23:00:00,4.8313798904418945
1990-07-09 23:00:00,4.856741428375244
1990-07-10 23:00:00,4.844061374664307
1990-07-11 23:00:00,4.920146465301514
1990-07-12 23:00:00,4.945507526397705
1990-07-13 23:00:00,5.0723161697387695
1990-07-16 23:00:00,5.046954154968262
1990-07-17 23:00:00,5.021591663360596
1990-07-18 23:00:00,5.008911609649658
1990-07-19 23:00:00,5.1864423751831055
1990-07-20 23:00:00,5.478100776672363
1990-07-23 23:00:00,5.389335632324219
1990-07-24 23:00:00,5.376652717590332
1990-07-25 23:00:00,5.3386125564575195
1990-07-26 23:00:00,5.275207996368408
1990-07-27 23:00:00,5.1864423751831055
1990-07-30 23:00:00,5.376652717590332
1990-07-31 23:00:00,5.414695739746094
1990-08-01 23:00:00,5.389335632324219
1990-08-02 23:00:00,5.3386125564575195
1990-08-03 23:00:00,5.0723161697387695
1990-08-06 23:00:00,5.0129780769348145
1990-08-07 23:00:00,5.064129829406738
1990-08-08 23:00:00,5.115285396575928
1990-08-09 23:00:00,5.166436195373535
1990-08-10 23:00:00,5.089707851409912
1990-08-13 23:00:00,5.0001912117004395
1990-08-14 23:00:00,4.974613666534424
1990-08-15 23:00:00,4.910675525665283
1990-08-16 23:00:00,4.757213592529297
1990-08-17 23:00:00,4.718848705291748
1990-08-20 23:00:00,4.795578956604004
1990-08-21 23:00:00,4.680482387542725
1990-08-22 23:00:00,4.62933349609375
1990-08-23 23:00:00,4.514236927032471
1990-08-24 23:00:00,4.59096622467041
1990-08-27 23:00:00,4.744427680969238
1990-08-28 23:00:00,4.770002841949463
1990-08-29 23:00:00,4.7316389083862305
1990-08-30 23:00:00,4.616546630859375
1990-08-31 23:00:00,4.693273067474365
1990-09-04 23:00:00,4.667698383331299
1990-09-05 23:00:00,4.654908657073975
1990-09-06 23:00:00,4.654908657073975
1990-09-07 23:00:00,4.6421217918396
1990-09-10 23:00:00,4.6421217918396
1990-09-11 23:00:00,4.565390586853027
1990-09-12 23:00:00,4.59096622467041
1990-09-13 23:00:00,4.5526018142700195
1990-09-14 23:00:00,4.475873947143555
1990-09-17 23:00:00,4.386356830596924
1990-09-18 23:00:00,4.373567581176758
1990-09-19 23:00:00,4.373567581176758
1990-09-20 23:00:00,4.296838760375977
1990-09-21 23:00:00,4.322414875030518
1990-09-24 23:00:00,4.322414875030518
1990-09-25 23:00:00,4.501450061798096
1990-09-26 23:00:00,4.450295448303223
1990-09-27 23:00:00,4.463084697723389
1990-09-28 23:00:00,4.475873947143555
1990-10-01 23:00:00,4.693273067474365
1990-10-02 23:00:00,4.744427680969238
1990-10-03 23:00:00,4.667698383331299
1990-10-04 23:00:00,4.654908657073975
1990-10-05 23:00:00,4.5526018142700195
1990-10-08 23:00:00,4.501450061798096
1990-10-09 23:00:00,4.335201263427734
1990-10-10 23:00:00,4.130588531494141
1990-10-11 23:00:00,4.028286457061768
1990-10-12 23:00:00,3.964343309402466
1990-10-15 23:00:00,3.9259815216064453
1990-10-16 23:00:00,3.542332410812378
1990-10-17 23:00:00,3.644638776779175
1990-10-18 23:00:00,3.7597317695617676
1990-10-19 23:00:00,3.951556921005249
1990-10-22 23:00:00,3.8108861446380615
1990-10-23 23:00:00,3.746945858001709
1990-10-24 23:00:00,3.8492534160614014
1990-10-25 23:00:00,3.836463451385498
1990-10-26 23:00:00,3.9131927490234375
1990-10-29 23:00:00,3.8492534160614014
1990-10-30 23:00:00,3.8748297691345215
1990-10-31 23:00:00,3.8748297691345215
1990-11-01 23:00:00,3.964343309402466
1990-11-02 23:00:00,3.9899213314056396
1990-11-05 23:00:00,4.085068225860596
1990-11-06 23:00:00,4.033356189727783
1990-11-07 23:00:00,4.007502555847168
1990-11-08 23:00:00,4.0204291343688965
1990-11-09 23:00:00,4.136778354644775
1990-11-12 23:00:00,4.110921382904053
1990-11-13 23:00:00,4.046283721923828
1990-11-14 23:00:00,4.162632465362549
1990-11-15 23:00:00,4.059210777282715
1990-11-16 23:00:00,4.149702548980713
1990-11-19 23:00:00,4.382399082183838
1990-11-20 23:00:00,4.382399082183838
1990-11-21 23:00:00,4.382399082183838
1990-11-23 23:00:00,4.304832935333252
1990-11-26 23:00:00,4.214341163635254
1990-11-27 23:00:00,4.201412677764893
1990-11-28 23:00:00,4.240196704864502
1990-11-29 23:00:00,4.266050815582275
1990-11-30 23:00:00,4.369471549987793
1990-12-03 23:00:00,4.395325660705566
1990-12-04 23:00:00,4.408253192901611
1990-12-05 23:00:00,4.395325660705566
1990-12-06 23:00:00,4.576310157775879
1990-12-07 23:00:00,4.524600982666016
1990-12-10 23:00:00,4.65387487411499
1990-12-11 23:00:00,4.576310157775879
1990-12-12 23:00:00,4.602163791656494
1990-12-13 23:00:00,4.589238166809082
1990-12-14 23:00:00,4.537526607513428
1990-12-17 23:00:00,4.511672019958496
1990-12-18 23:00:00,4.589238166809082
1990-12-19 23:00:00,4.550454139709473
1990-12-20 23:00:00,4.666800498962402
1990-12-21 23:00:00,4.82192850112915
1990-12-24 23:00:00,4.783148765563965
1990-12-26 23:00:00,4.82192850112915
1990-12-27 23:00:00,4.82192850112915
1990-12-28 23:00:00,4.86071252822876
1990-12-31 23:00:00,4.86071252822876
1991-01-02 23:00:00,4.69265604019165
1991-01-03 23:00:00,4.615093231201172
1991-01-04 23:00:00,4.576310157775879
1991-01-07 23:00:00,4.459962368011475
1991-01-08 23:00:00,4.447032928466797
1991-01-09 23:00:00,4.369471549987793
1991-01-10 23:00:00,4.472889423370361
1991-01-11 23:00:00,4.537526607513428
1991-01-14 23:00:00,4.356543064117432
1991-01-15 23:00:00,4.395325660705566
1991-01-16 23:00:00,4.4211812019348145
1991-01-17 23:00:00,4.563380718231201
1991-01-18 23:00:00,4.705582618713379
1991-01-21 23:00:00,4.666800498962402
1991-01-22 23:00:00,4.6797285079956055
1991-01-23 23:00:00,4.705582618713379
1991-01-24 23:00:00,4.873639106750488
1991-01-25 23:00:00,4.744365215301514
1991-01-28 23:00:00,4.770218849182129
1991-01-29 23:00:00,4.834859848022461
1991-01-30 23:00:00,4.899494647979736
1991-01-31 23:00:00,5.106334686279297
1991-02-01 23:00:00,5.145115852355957
1991-02-04 23:00:00,5.1968278884887695
1991-02-05 23:00:00,5.274389266967773
1991-02-06 23:00:00,5.44244384765625
1991-02-07 23:00:00,5.32609748840332
1991-02-08 23:00:00,5.351953029632568
1991-02-11 23:00:00,5.532940864562988
1991-02-12 23:00:00,5.563687324523926
1991-02-13 23:00:00,5.537630081176758
1991-02-14 23:00:00,5.420363903045654
1991-02-15 23:00:00,5.498539447784424
1991-02-19 23:00:00,5.641866207122803
1991-02-20 23:00:00,5.680953025817871
1991-02-21 23:00:00,5.537630081176758
1991-02-22 23:00:00,5.498539447784424
1991-02-25 23:00:00,5.446422576904297
1991-02-26 23:00:00,5.4333930015563965
1991-02-27 23:00:00,5.485508441925049
1991-02-28 23:00:00,5.524599552154541
1991-03-01 23:00:00,5.511570930480957
1991-03-04 23:00:00,5.2640061378479
1991-03-05 23:00:00,5.537630081176758
1991-03-06 23:00:00,5.446422576904297
1991-03-07 23:00:00,5.394300937652588
1991-03-08 23:00:00,5.4073309898376465
1991-03-11 23:00:00,5.4073309898376465
1991-03-12 23:00:00,5.4073309898376465
1991-03-13 23:00:00,5.485508441925049
1991-03-14 23:00:00,5.133708953857422
1991-03-15 23:00:00,5.237947940826416
1991-03-18 23:00:00,4.768875598907471
1991-03-19 23:00:00,4.847055912017822
1991-03-20 23:00:00,4.95128870010376
1991-03-21 23:00:00,4.899172782897949
1991-03-22 23:00:00,4.964322090148926
1991-03-25 23:00:00,5.042500019073486
1991-03-26 23:00:00,5.107649326324463
1991-03-27 23:00:00,5.133708953857422
1991-03-28 23:00:00,5.094620227813721
1991-04-01 23:00:00,5.08159065246582
1991-04-02 23:00:00,5.107649326324463
1991-04-03 23:00:00,5.08159065246582
1991-04-04 23:00:00,5.068559646606445
1991-04-05 23:00:00,5.042500019073486
1991-04-08 23:00:00,5.029467582702637
1991-04-09 23:00:00,4.925232887268066
1991-04-10 23:00:00,4.925232887268066
1991-04-11 23:00:00,4.899172782897949
1991-04-12 23:00:00,4.899172782897949
1991-04-15 23:00:00,4.964322090148926
1991-04-16 23:00:00,5.042500019073486
1991-04-17 23:00:00,5.042500019073486
1991-04-18 23:00:00,4.977353096008301
1991-04-19 23:00:00,4.990381240844727
1991-04-22 23:00:00,4.964322090148926
1991-04-23 23:00:00,4.925232887268066
1991-04-24 23:00:00,4.964322090148926
1991-04-25 23:00:00,5.003408908843994
1991-04-26 23:00:00,5.068559646606445
1991-04-29 23:00:00,4.964322090148926
1991-04-30 23:00:00,4.95128870010376
1991-05-01 23:00:00,5.016442775726318
1991-05-02 23:00:00,5.055531024932861
1991-05-03 23:00:00,5.055531024932861
1991-05-06 23:00:00,5.047118186950684
1991-05-07 23:00:00,4.9419708251953125
1991-05-08 23:00:00,4.889397144317627
1991-05-09 23:00:00,4.9288249015808105
1991-05-10 23:00:00,4.902538776397705
1991-05-13 23:00:00,4.876253604888916
1991-05-14 23:00:00,4.889397144317627
1991-05-15 23:00:00,4.836822032928467
1991-05-16 23:00:00,4.889397144317627
1991-05-17 23:00:00,4.9288249015808105
1991-05-20 23:00:00,4.889397144317627
1991-05-21 23:00:00,4.9419708251953125
1991-05-22 23:00:00,4.863110542297363
1991-05-23 23:00:00,4.823678970336914
1991-05-24 23:00:00,4.863110542297363
1991-05-28 23:00:00,5.047118186950684
1991-05-29 23:00:00,5.204839706420898
1991-05-30 23:00:00,5.586002826690674
1991-05-31 23:00:00,5.704296588897705
1991-06-03 23:00:00,5.704296588897705
1991-06-04 23:00:00,5.730579376220703
1991-06-05 23:00:00,5.572859287261963
1991-06-06 23:00:00,5.61228609085083
1991-06-07 23:00:00,5.572859287261963
1991-06-10 23:00:00,5.5334296226501465
1991-06-11 23:00:00,5.691151142120361
1991-06-12 23:00:00,5.6385817527771
1991-06-13 23:00:00,5.743729591369629
1991-06-14 23:00:00,5.862017631530762
1991-06-17 23:00:00,5.940878868103027
1991-06-18 23:00:00,5.888303279876709
1991-06-19 23:00:00,5.809445381164551
1991-06-20 23:00:00,5.809445381164551
1991-06-21 23:00:00,5.888303279876709
1991-06-24 23:00:00,5.770010471343994
1991-06-25 23:00:00,5.756865501403809
1991-06-26 23:00:00,5.756865501403809
1991-06-27 23:00:00,5.914589881896973
1991-06-28 23:00:00,5.822585105895996
1991-07-01 23:00:00,5.98030948638916
1991-07-02 23:00:00,5.954021453857422
1991-07-03 23:00:00,5.901449680328369
1991-07-05 23:00:00,5.914589881896973
1991-07-08 23:00:00,5.927735328674316
1991-07-09 23:00:00,5.901449680328369
1991-07-10 23:00:00,5.8751606941223145
1991-07-11 23:00:00,5.967166423797607
1991-07-12 23:00:00,6.0591721534729
1991-07-15 23:00:00,6.098600387573242
1991-07-16 23:00:00,6.046026229858398
1991-07-17 23:00:00,6.019740104675293
1991-07-18 23:00:00,6.164321422576904
1991-07-19 23:00:00,6.164321422576904
1991-07-22 23:00:00,6.098600387573242
1991-07-23 23:00:00,6.111744403839111
1991-07-24 23:00:00,6.0723137855529785
1991-07-25 23:00:00,5.9934539794921875
1991-07-26 23:00:00,5.914589881896973
1991-07-29 23:00:00,5.940878868103027
1991-07-30 23:00:00,6.019740104675293
1991-07-31 23:00:00,5.98030948638916
1991-08-01 23:00:00,5.9934539794921875
1991-08-02 23:00:00,5.967166423797607
1991-08-05 23:00:00,5.967166423797607
1991-08-06 23:00:00,6.024899482727051
1991-08-07 23:00:00,6.038140773773193
1991-08-08 23:00:00,5.958691120147705
1991-08-09 23:00:00,5.865997791290283
1991-08-12 23:00:00,5.905726432800293
1991-08-13 23:00:00,5.786550998687744
1991-08-14 23:00:00,5.667380332946777
1991-08-15 23:00:00,5.7203450202941895
1991-08-16 23:00:00,5.707101821899414
1991-08-19 23:00:00,5.495233535766602
1991-08-20 23:00:00,5.455512046813965
1991-08-21 23:00:00,5.7203450202941895
1991-08-22 23:00:00,5.773306846618652
1991-08-23 23:00:00,6.038140773773193
1991-08-26 23:00:00,6.077867031097412
1991-08-27 23:00:00,6.011657238006592
1991-08-28 23:00:00,5.998414516448975
1991-08-29 23:00:00,6.038140773773193
1991-08-30 23:00:00,5.998414516448975
1991-09-03 23:00:00,5.985176086425781
1991-09-04 23:00:00,5.9719319343566895
1991-09-05 23:00:00,5.9719319343566895
1991-09-06 23:00:00,5.985176086425781
1991-09-09 23:00:00,5.9719319343566895
1991-09-10 23:00:00,5.865997791290283
1991-09-11 23:00:00,5.786550998687744
1991-09-12 23:00:00,5.79979133605957
1991-09-13 23:00:00,5.813035011291504
1991-09-16 23:00:00,5.760068416595459
1991-09-17 23:00:00,5.79979133605957
1991-09-18 23:00:00,5.79979133605957
1991-09-19 23:00:00,5.65413761138916
1991-09-20 23:00:00,5.693860054016113
1991-09-23 23:00:00,5.693860054016113
1991-09-24 23:00:00,5.733584403991699
1991-09-25 23:00:00,5.746826171875
1991-09-26 23:00:00,5.773306846618652
1991-09-27 23:00:00,5.826275825500488
1991-09-30 23:00:00,5.813035011291504
1991-10-01 23:00:00,5.813035011291504
1991-10-02 23:00:00,5.786550998687744
1991-10-03 23:00:00,5.733584403991699
1991-10-04 23:00:00,5.64089298248291
1991-10-07 23:00:00,5.587928771972656
1991-10-08 23:00:00,5.587928771972656
1991-10-09 23:00:00,5.508477210998535
1991-10-10 23:00:00,5.455512046813965
1991-10-11 23:00:00,5.1509552001953125
1991-10-14 23:00:00,5.468754291534424
1991-10-15 23:00:00,5.376064300537109
1991-10-16 23:00:00,5.4025492668151855
1991-10-17 23:00:00,5.601165771484375
1991-10-18 23:00:00,5.508477210998535
1991-10-21 23:00:00,5.42902946472168
1991-10-22 23:00:00,5.42902946472168
1991-10-23 23:00:00,5.5349650382995605
1991-10-24 23:00:00,5.455512046813965
1991-10-25 23:00:00,5.442270278930664
1991-10-28 23:00:00,5.601165771484375
1991-10-29 23:00:00,5.481997489929199
1991-10-30 23:00:00,5.362820148468018
1991-10-31 23:00:00,5.296615123748779
1991-11-01 23:00:00,5.296615123748779
1991-11-04 23:00:00,5.28337287902832
1991-11-05 23:00:00,5.172177791595459
1991-11-06 23:00:00,5.078624248504639
1991-11-07 23:00:00,5.265729904174805
1991-11-08 23:00:00,5.279094696044922
1991-11-11 23:00:00,5.279094696044922
1991-11-12 23:00:00,5.345921039581299
1991-11-13 23:00:00,5.3058247566223145
1991-11-14 23:00:00,5.265729904174805
1991-11-15 23:00:00,5.078624248504639
1991-11-18 23:00:00,5.105356693267822
1991-11-19 23:00:00,4.944976329803467
1991-11-20 23:00:00,5.025162220001221
1991-11-21 23:00:00,5.011800765991211
1991-11-22 23:00:00,4.958343505859375
1991-11-25 23:00:00,4.838057994842529
1991-11-26 23:00:00,4.89151668548584
1991-11-27 23:00:00,4.918249130249023
1991-11-29 23:00:00,4.90488338470459
1991-12-02 23:00:00,4.971704483032227
1991-12-03 23:00:00,5.03852653503418
1991-12-04 23:00:00,4.918249130249023
1991-12-05 23:00:00,4.89151668548584
1991-12-06 23:00:00,4.944976329803467
1991-12-09 23:00:00,4.918249130249023
1991-12-10 23:00:00,4.89151668548584
1991-12-11 23:00:00,4.90488338470459
1991-12-12 23:00:00,4.90488338470459
1991-12-13 23:00:00,4.931612014770508
1991-12-16 23:00:00,4.918249130249023
1991-12-17 23:00:00,4.958343505859375
1991-12-18 23:00:00,4.918249130249023
1991-12-19 23:00:00,4.8647847175598145
1991-12-20 23:00:00,5.011800765991211
1991-12-23 23:00:00,5.145448684692383
1991-12-24 23:00:00,5.185544967651367
1991-12-26 23:00:00,5.198905944824219
1991-12-27 23:00:00,5.239001274108887
1991-12-30 23:00:00,5.345921039581299
1991-12-31 23:00:00,5.399380207061768
1992-01-02 23:00:00,5.42611026763916
1992-01-03 23:00:00,5.439476490020752
1992-01-06 23:00:00,5.5196614265441895
1992-01-07 23:00:00,5.693403244018555
1992-01-08 23:00:00,5.773594856262207
1992-01-09 23:00:00,5.760227680206299
1992-01-10 23:00:00,5.7067694664001465
1992-01-13 23:00:00,5.7067694664001465
1992-01-14 23:00:00,5.8136887550354
1992-01-15 23:00:00,6.000798225402832
1992-01-16 23:00:00,6.147809028625488
1992-01-17 23:00:00,6.268092632293701
1992-01-20 23:00:00,6.067619323730469
1992-01-21 23:00:00,6.0542521476745605
1992-01-22 23:00:00,6.254727840423584
1992-01-23 23:00:00,6.187900543212891
1992-01-24 23:00:00,6.147809028625488
1992-01-27 23:00:00,6.214632987976074
1992-01-28 23:00:00,6.174539089202881
1992-01-29 23:00:00,6.1344428062438965
1992-01-30 23:00:00,5.987430095672607
1992-01-31 23:00:00,6.040892124176025
1992-02-03 23:00:00,6.01416015625
1992-02-04 23:00:00,6.174539089202881
1992-02-05 23:00:00,6.187900543212891
1992-02-06 23:00:00,6.268092632293701
1992-02-07 23:00:00,6.254727840423584
1992-02-10 23:00:00,6.281459808349609
1992-02-11 23:00:00,6.3444952964782715
1992-02-12 23:00:00,6.317557334899902
1992-02-13 23:00:00,6.236733436584473
1992-02-14 23:00:00,6.223264217376709
1992-02-18 23:00:00,6.236733436584473
1992-02-19 23:00:00,6.331027984619141
1992-02-20 23:00:00,6.519608974456787
1992-02-21 23:00:00,6.304086685180664
1992-02-24 23:00:00,6.331027984619141
1992-02-25 23:00:00,6.2771477699279785
1992-02-26 23:00:00,6.331027984619141
1992-02-27 23:00:00,6.250205039978027
1992-02-28 23:00:00,6.223264217376709
1992-03-02 23:00:00,6.250205039978027
1992-03-03 23:00:00,6.357966899871826
1992-03-04 23:00:00,6.465731620788574
1992-03-05 23:00:00,6.465731620788574
1992-03-06 23:00:00,6.384903907775879
1992-03-09 23:00:00,6.304086685180664
1992-03-10 23:00:00,6.317557334899902
1992-03-11 23:00:00,6.182854652404785
1992-03-12 23:00:00,6.196322917938232
1992-03-13 23:00:00,6.223264217376709
1992-03-16 23:00:00,6.304086685180664
1992-03-17 23:00:00,6.26367712020874
1992-03-18 23:00:00,6.290618419647217
1992-03-19 23:00:00,6.452260494232178
1992-03-20 23:00:00,6.62737512588501
1992-03-23 23:00:00,6.65431022644043
1992-03-24 23:00:00,6.573490619659424
1992-03-25 23:00:00,6.384903907775879
1992-03-26 23:00:00,6.533080101013184
1992-03-27 23:00:00,6.465731620788574
1992-03-30 23:00:00,6.425317764282227
1992-03-31 23:00:00,6.438790798187256
1992-04-01 23:00:00,6.438790798187256
1992-04-02 23:00:00,6.26367712020874
1992-04-03 23:00:00,6.250205039978027
1992-04-06 23:00:00,6.209796905517578
1992-04-07 23:00:00,6.209796905517578
1992-04-08 23:00:00,5.9807963371276855
1992-04-09 23:00:00,6.061622619628906
1992-04-10 23:00:00,6.061622619628906
1992-04-13 23:00:00,6.034680366516113
1992-04-14 23:00:00,6.331027984619141
1992-04-15 23:00:00,6.49267053604126
1992-04-16 23:00:00,6.748603820800781
1992-04-20 23:00:00,7.05842399597168
1992-04-21 23:00:00,6.8563666343688965
1992-04-22 23:00:00,6.896780967712402
1992-04-23 23:00:00,6.829428672790527
1992-04-24 23:00:00,6.910247802734375
1992-04-27 23:00:00,6.977599620819092
1992-04-28 23:00:00,6.910247802734375
1992-04-29 23:00:00,6.96412992477417
1992-04-30 23:00:00,6.910247802734375
1992-05-01 23:00:00,6.896780967712402
1992-05-04 23:00:00,6.829428672790527
1992-05-05 23:00:00,6.757236957550049
1992-05-06 23:00:00,6.89293098449707
1992-05-07 23:00:00,6.920069694519043
1992-05-08 23:00:00,6.8115153312683105
1992-05-11 23:00:00,6.933636665344238
1992-05-12 23:00:00,6.797942161560059
1992-05-13 23:00:00,6.865790367126465
1992-05-14 23:00:00,6.865790367126465
1992-05-15 23:00:00,6.621554374694824
1992-05-18 23:00:00,6.702966690063477
1992-05-19 23:00:00,6.920069694519043
1992-05-20 23:00:00,7.028613090515137
1992-05-21 23:00:00,6.947206497192383
1992-05-22 23:00:00,6.920069694519043
1992-05-26 23:00:00,6.920069694519043
1992-05-27 23:00:00,7.015048027038574
1992-05-28 23:00:00,7.137167453765869
1992-05-29 23:00:00,7.299990177154541
1992-06-01 23:00:00,7.245716571807861
1992-06-02 23:00:00,7.245716571807861
1992-06-03 23:00:00,7.245716571807861
1992-06-04 23:00:00,7.2321457862854
1992-06-05 23:00:00,7.245716571807861
1992-06-08 23:00:00,7.286422252655029
1992-06-09 23:00:00,7.218578338623047
1992-06-10 23:00:00,7.245716571807861
1992-06-11 23:00:00,7.0421833992004395
1992-06-12 23:00:00,7.0421833992004395
1992-06-15 23:00:00,7.00147819519043
1992-06-16 23:00:00,6.947206497192383
1992-06-17 23:00:00,7.028613090515137
1992-06-18 23:00:00,7.069324016571045
1992-06-19 23:00:00,7.015048027038574
1992-06-22 23:00:00,6.947206497192383
1992-06-23 23:00:00,7.015048027038574
1992-06-24 23:00:00,7.0421833992004395
1992-06-25 23:00:00,7.096460342407227
1992-06-26 23:00:00,7.110028266906738
1992-06-29 23:00:00,7.096460342407227
1992-06-30 23:00:00,7.110028266906738
1992-07-01 23:00:00,7.313557147979736
1992-07-02 23:00:00,7.123596668243408
1992-07-06 23:00:00,7.069324016571045
1992-07-07 23:00:00,7.015048027038574
1992-07-08 23:00:00,6.920069694519043
1992-07-09 23:00:00,7.0557541847229
1992-07-10 23:00:00,6.97434139251709
1992-07-13 23:00:00,6.865790367126465
1992-07-14 23:00:00,6.9879069328308105
1992-07-15 23:00:00,7.082888603210449
1992-07-16 23:00:00,7.245716571807861
1992-07-17 23:00:00,7.082888603210449
1992-07-20 23:00:00,7.069324016571045
1992-07-21 23:00:00,7.00147819519043
1992-07-22 23:00:00,6.97434139251709
1992-07-23 23:00:00,6.9879069328308105
1992-07-24 23:00:00,6.97434139251709
1992-07-27 23:00:00,6.947206497192383
1992-07-28 23:00:00,7.0557541847229
1992-07-29 23:00:00,7.340694904327393
1992-07-30 23:00:00,7.408539772033691
1992-07-31 23:00:00,7.286422252655029
1992-08-03 23:00:00,7.340694904327393
1992-08-04 23:00:00,7.377312183380127
1992-08-05 23:00:00,7.309002876281738
1992-08-06 23:00:00,7.213371276855469
1992-08-07 23:00:00,7.117740154266357
1992-08-10 23:00:00,7.063089847564697
1992-08-11 23:00:00,7.076750755310059
1992-08-12 23:00:00,7.049429893493652
1992-08-13 23:00:00,6.926477909088135
1992-08-14 23:00:00,6.967462062835693
1992-08-17 23:00:00,7.008446216583252
1992-08-18 23:00:00,7.063089847564697
1992-08-19 23:00:00,7.076750755310059
1992-08-20 23:00:00,7.076750755310059
1992-08-21 23:00:00,6.994785308837891
1992-08-24 23:00:00,6.639577388763428
1992-08-25 23:00:00,6.557609558105469
1992-08-26 23:00:00,6.4893012046813965
1992-08-27 23:00:00,6.543948173522949
1992-08-28 23:00:00,6.666903495788574
1992-08-31 23:00:00,6.57127046585083
1992-09-01 23:00:00,6.557609558105469
1992-09-02 23:00:00,6.475636005401611
1992-09-03 23:00:00,6.502960681915283
1992-09-04 23:00:00,6.557609558105469
1992-09-08 23:00:00,6.475636005401611
1992-09-09 23:00:00,6.393670082092285
1992-09-10 23:00:00,6.502960681915283
1992-09-11 23:00:00,6.516626358032227
1992-09-14 23:00:00,6.762532711029053
1992-09-15 23:00:00,6.694227695465088
1992-09-16 23:00:00,6.8171844482421875
1992-09-17 23:00:00,6.858168601989746
1992-09-18 23:00:00,6.885488033294678
1992-09-21 23:00:00,6.871826171875
1992-09-22 23:00:00,6.899151802062988
1992-09-23 23:00:00,6.65324068069458
1992-09-24 23:00:00,6.68056058883667
1992-09-25 23:00:00,6.5302863121032715
1992-09-28 23:00:00,6.502960681915283
1992-09-29 23:00:00,6.543948173522949
1992-09-30 23:00:00,6.407331466674805
1992-10-01 23:00:00,6.28437614440918
1992-10-02 23:00:00,6.25705099105835
1992-10-05 23:00:00,6.12043571472168
1992-10-06 23:00:00,6.21606969833374
1992-10-07 23:00:00,6.065788269042969
1992-10-08 23:00:00,5.983816146850586
1992-10-09 23:00:00,5.847203254699707
1992-10-12 23:00:00,5.888184547424316
1992-10-13 23:00:00,6.024805545806885
1992-10-14 23:00:00,6.065788269042969
1992-10-15 23:00:00,5.983816146850586
1992-10-16 23:00:00,6.161422252655029
1992-10-19 23:00:00,6.393670082092285
1992-10-20 23:00:00,6.516626358032227
1992-10-21 23:00:00,6.584934234619141
1992-10-22 23:00:00,6.5302863121032715
1992-10-23 23:00:00,6.5302863121032715
1992-10-26 23:00:00,6.666903495788574
1992-10-27 23:00:00,6.65324068069458
1992-10-28 23:00:00,6.735208988189697
1992-10-29 23:00:00,6.762532711029053
1992-10-30 23:00:00,6.735208988189697
1992-11-02 23:00:00,6.858168601989746
1992-11-03 23:00:00,6.953799724578857
1992-11-04 23:00:00,6.967566967010498
1992-11-05 23:00:00,6.829867362976074
1992-11-06 23:00:00,6.857409477233887
1992-11-09 23:00:00,6.898715972900391
1992-11-10 23:00:00,6.733479022979736
1992-11-11 23:00:00,6.6646294593811035
1992-11-12 23:00:00,6.540702819824219
1992-11-13 23:00:00,6.623321533203125
1992-11-16 23:00:00,6.637092590332031
1992-11-17 23:00:00,6.6095499992370605
1992-11-18 23:00:00,6.637092590332031
1992-11-19 23:00:00,6.67840051651001
1992-11-20 23:00:00,6.6646294593811035
1992-11-23 23:00:00,6.761019229888916
1992-11-24 23:00:00,6.9124908447265625
1992-11-25 23:00:00,7.008879661560059
1992-11-27 23:00:00,7.008879661560059
1992-11-30 23:00:00,7.050188064575195
1992-12-01 23:00:00,7.229196071624756
1992-12-02 23:00:00,7.201658725738525
1992-12-03 23:00:00,7.105267524719238
1992-12-04 23:00:00,7.091492652893066
1992-12-07 23:00:00,7.063960075378418
1992-12-08 23:00:00,7.091492652893066
1992-12-09 23:00:00,7.105267524719238
1992-12-10 23:00:00,7.091492652893066
1992-12-11 23:00:00,7.077728271484375
1992-12-14 23:00:00,7.008879661560059
1992-12-15 23:00:00,7.022649765014648
1992-12-16 23:00:00,7.008879661560059
1992-12-17 23:00:00,7.008879661560059
1992-12-18 23:00:00,7.105267524719238
1992-12-21 23:00:00,7.132803440093994
1992-12-22 23:00:00,7.050188064575195
1992-12-23 23:00:00,7.03641939163208
1992-12-24 23:00:00,7.008879661560059
1992-12-28 23:00:00,6.9813408851623535
1992-12-29 23:00:00,7.146576404571533
1992-12-30 23:00:00,7.31181526184082
1992-12-31 23:00:00,7.256734371185303
1993-01-04 23:00:00,7.215425968170166
1993-01-05 23:00:00,7.298048973083496
1993-01-06 23:00:00,7.270508766174316
1993-01-07 23:00:00,7.229196071624756
1993-01-08 23:00:00,7.215425968170166
1993-01-11 23:00:00,7.1878838539123535
1993-01-12 23:00:00,7.160349369049072
1993-01-13 23:00:00,7.008879661560059
1993-01-14 23:00:00,6.871182441711426
1993-01-15 23:00:00,6.843636989593506
1993-01-18 23:00:00,6.940028190612793
1993-01-19 23:00:00,6.857409477233887
1993-01-20 23:00:00,6.816100120544434
1993-01-21 23:00:00,6.8023295402526855
1993-01-22 23:00:00,6.995109558105469
1993-01-25 23:00:00,6.884948253631592
1993-01-26 23:00:00,6.953798770904541
1993-01-27 23:00:00,6.967566967010498
1993-01-28 23:00:00,6.871182441711426
1993-01-29 23:00:00,6.940028190612793
1993-02-01 23:00:00,6.884948253631592
1993-02-02 23:00:00,6.898715972900391
1993-02-03 23:00:00,7.077728271484375
1993-02-04 23:00:00,7.298048973083496
1993-02-05 23:00:00,7.43574857711792
1993-02-08 23:00:00,7.477049827575684
1993-02-09 23:00:00,7.435439586639404
1993-02-10 23:00:00,7.588032245635986
1993-02-11 23:00:00,7.699007511138916
1993-02-12 23:00:00,7.615773677825928
1993-02-16 23:00:00,7.185742378234863
1993-02-17 23:00:00,7.324463367462158
1993-02-18 23:00:00,7.199610233306885
1993-02-19 23:00:00,7.2134833335876465
1993-02-22 23:00:00,7.338337421417236
1993-02-23 23:00:00,7.352208137512207
1993-02-24 23:00:00,7.352208137512207
1993-02-25 23:00:00,7.282848358154297
1993-02-26 23:00:00,7.352208137512207
1993-03-01 23:00:00,7.282848358154297
1993-03-02 23:00:00,7.477051734924316
1993-03-03 23:00:00,7.518673419952393
1993-03-04 23:00:00,7.532544136047363
1993-03-05 23:00:00,7.49092960357666
1993-03-08 23:00:00,7.601900577545166
1993-03-09 23:00:00,7.588032245635986
1993-03-10 23:00:00,7.574160099029541
1993-03-11 23:00:00,7.532544136047363
1993-03-12 23:00:00,7.449310779571533
1993-03-15 23:00:00,7.366079807281494
1993-03-16 23:00:00,7.477051734924316
1993-03-17 23:00:00,7.352208137512207
1993-03-18 23:00:00,7.393820285797119
1993-03-19 23:00:00,7.435439586639404
1993-03-22 23:00:00,7.574160099029541
1993-03-23 23:00:00,7.615773677825928
1993-03-24 23:00:00,7.726756572723389
1993-03-25 23:00:00,7.588032245635986
1993-03-26 23:00:00,7.504802703857422
1993-03-29 23:00:00,7.504802703857422
1993-03-30 23:00:00,7.643518924713135
1993-03-31 23:00:00,7.532544136047363
1993-04-01 23:00:00,7.574160099029541
1993-04-02 23:00:00,7.49092960357666
1993-04-05 23:00:00,7.643518924713135
1993-04-06 23:00:00,7.49092960357666
1993-04-07 23:00:00,7.379947662353516
1993-04-08 23:00:00,7.338337421417236
1993-04-12 23:00:00,7.504802703857422
1993-04-13 23:00:00,7.560288906097412
1993-04-14 23:00:00,7.685129642486572
1993-04-15 23:00:00,8.156787872314453
1993-04-16 23:00:00,8.267763137817383
1993-04-19 23:00:00,8.240017890930176
1993-04-20 23:00:00,8.170660972595215
1993-04-21 23:00:00,8.12904167175293
1993-04-22 23:00:00,8.156787872314453
1993-04-23 23:00:00,8.156787872314453
1993-04-26 23:00:00,8.018065452575684
1993-04-27 23:00:00,8.018065452575684
1993-04-28 23:00:00,8.04581069946289
1993-04-29 23:00:00,8.12904167175293
1993-04-30 23:00:00,8.184531211853027
1993-05-03 23:00:00,8.198406219482422
1993-05-04 23:00:00,8.128572463989258
1993-05-05 23:00:00,8.226336479187012
1993-05-06 23:00:00,8.198406219482422
1993-05-07 23:00:00,8.268233299255371
1993-05-10 23:00:00,8.058736801147461
1993-05-11 23:00:00,8.184432983398438
1993-05-12 23:00:00,8.142529487609863
1993-05-13 23:00:00,8.058736801147461
1993-05-14 23:00:00,8.184432983398438
1993-05-17 23:00:00,8.072707176208496
1993-05-18 23:00:00,8.170470237731934
1993-05-19 23:00:00,8.338071823120117
1993-05-20 23:00:00,8.324102401733398
1993-05-21 23:00:00,8.226336479187012
1993-05-24 23:00:00,8.156501770019531
1993-05-25 23:00:00,8.072707176208496
1993-05-26 23:00:00,8.254271507263184
1993-05-27 23:00:00,8.142529487609863
1993-05-28 23:00:00,8.114602088928223
1993-06-01 23:00:00,8.114602088928223
1993-06-02 23:00:00,8.086668968200684
1993-06-03 23:00:00,8.142529487609863
1993-06-04 23:00:00,8.072707176208496
1993-06-07 23:00:00,8.184432983398438
1993-06-08 23:00:00,8.072707176208496
1993-06-09 23:00:00,8.044771194458008
1993-06-10 23:00:00,7.597843170166016
1993-06-11 23:00:00,7.430235385894775
1993-06-14 23:00:00,7.514037609100342
1993-06-15 23:00:00,7.611807346343994
1993-06-16 23:00:00,7.807334899902344
1993-06-17 23:00:00,7.835269927978516
1993-06-18 23:00:00,7.737502574920654
1993-06-21 23:00:00,7.695605278015137
1993-06-22 23:00:00,7.695605278015137
1993-06-23 23:00:00,7.681638240814209
1993-06-24 23:00:00,7.737502574920654
1993-06-25 23:00:00,7.723536014556885
1993-06-28 23:00:00,7.681638240814209
1993-06-29 23:00:00,7.500071048736572
1993-06-30 23:00:00,7.318502902984619
1993-07-01 23:00:00,7.528005599975586
1993-07-02 23:00:00,7.500071048736572
1993-07-06 23:00:00,7.41627311706543
1993-07-07 23:00:00,7.3743743896484375
1993-07-08 23:00:00,7.290572643280029
1993-07-09 23:00:00,7.458172798156738
1993-07-12 23:00:00,7.514037609100342
1993-07-13 23:00:00,7.430235385894775
1993-07-14 23:00:00,7.430235385894775
1993-07-15 23:00:00,7.500071048736572
1993-07-16 23:00:00,7.514037609100342
1993-07-19 23:00:00,7.6676716804504395
1993-07-20 23:00:00,7.6676716804504395
1993-07-21 23:00:00,7.6676716804504395
1993-07-22 23:00:00,7.695605278015137
1993-07-23 23:00:00,7.737502574920654
1993-07-26 23:00:00,7.751469135284424
1993-07-27 23:00:00,7.821301460266113
1993-07-28 23:00:00,7.779403209686279
1993-07-29 23:00:00,7.751469135284424
1993-07-30 23:00:00,7.737502574920654
1993-08-02 23:00:00,7.737502574920654
1993-08-03 23:00:00,7.751469135284424
1993-08-04 23:00:00,7.7418999671936035
1993-08-05 23:00:00,7.755976676940918
1993-08-06 23:00:00,7.84043025970459
1993-08-09 23:00:00,7.896733283996582
1993-08-10 23:00:00,7.92488956451416
1993-08-11 23:00:00,7.981195449829102
1993-08-12 23:00:00,7.798205852508545
1993-08-13 23:00:00,7.896733283996582
1993-08-16 23:00:00,8.023422241210938
1993-08-17 23:00:00,7.967118263244629
1993-08-18 23:00:00,7.896733283996582
1993-08-19 23:00:00,7.784124851226807
1993-08-20 23:00:00,7.643364906311035
1993-08-23 23:00:00,7.572984218597412
1993-08-24 23:00:00,7.699665069580078
1993-08-25 23:00:00,7.770051002502441
1993-08-26 23:00:00,7.7418999671936035
1993-08-27 23:00:00,7.713749885559082
1993-08-30 23:00:00,7.6292901039123535
1993-08-31 23:00:00,7.643364906311035
1993-09-01 23:00:00,7.643364906311035
1993-09-02 23:00:00,7.601136207580566
1993-09-03 23:00:00,7.713749885559082
1993-09-07 23:00:00,7.6292901039123535
1993-09-08 23:00:00,7.615211486816406
1993-09-09 23:00:00,7.558909893035889
1993-09-10 23:00:00,7.699665069580078
1993-09-13 23:00:00,7.770051002502441
1993-09-14 23:00:00,7.755976676940918
1993-09-15 23:00:00,7.657444477081299
1993-09-16 23:00:00,7.713749885559082
1993-09-17 23:00:00,7.558909893035889
1993-09-20 23:00:00,7.47445011138916
1993-09-21 23:00:00,7.40407133102417
1993-09-22 23:00:00,7.291458606719971
1993-09-23 23:00:00,7.291458606719971
1993-09-24 23:00:00,7.319613933563232
1993-09-27 23:00:00,7.40407133102417
1993-09-28 23:00:00,7.446303844451904
1993-09-29 23:00:00,7.389998435974121
1993-09-30 23:00:00,7.34776496887207
1993-10-01 23:00:00,7.502604961395264
1993-10-04 23:00:00,7.4603776931762695
1993-10-05 23:00:00,7.4603776931762695
1993-10-06 23:00:00,7.446303844451904
1993-10-07 23:00:00,7.375917911529541
1993-10-08 23:00:00,7.389998435974121
1993-10-11 23:00:00,7.375917911529541
1993-10-12 23:00:00,7.375917911529541
1993-10-13 23:00:00,7.319613933563232
1993-10-14 23:00:00,7.361843585968018
1993-10-15 23:00:00,7.4603776931762695
1993-10-18 23:00:00,7.488526344299316
1993-10-19 23:00:00,7.530752182006836
1993-10-20 23:00:00,7.47445011138916
1993-10-21 23:00:00,7.389998435974121
1993-10-22 23:00:00,7.40407133102417
1993-10-25 23:00:00,7.558909893035889
1993-10-26 23:00:00,7.6292901039123535
1993-10-27 23:00:00,7.854506492614746
1993-10-28 23:00:00,7.938967704772949
1993-10-29 23:00:00,7.854506492614746
1993-11-01 23:00:00,8.023422241210938
1993-11-02 23:00:00,8.079728126525879
1993-11-03 23:00:00,7.981195449829102
1993-11-04 23:00:00,7.900628089904785
1993-11-05 23:00:00,7.886447906494141
1993-11-08 23:00:00,7.957362651824951
1993-11-09 23:00:00,7.971545696258545
1993-11-10 23:00:00,8.05665111541748
1993-11-11 23:00:00,8.014095306396484
1993-11-12 23:00:00,8.05665111541748
1993-11-15 23:00:00,7.971545696258545
1993-11-16 23:00:00,8.05665111541748
1993-11-17 23:00:00,7.999917030334473
1993-11-18 23:00:00,8.014095306396484
1993-11-19 23:00:00,8.070837020874023
1993-11-22 23:00:00,8.113391876220703
1993-11-23 23:00:00,8.04246997833252
1993-11-24 23:00:00,8.05665111541748
1993-11-26 23:00:00,8.099207878112793
1993-11-29 23:00:00,8.085020065307617
1993-11-30 23:00:00,8.02828311920166
1993-12-01 23:00:00,8.113391876220703
1993-12-02 23:00:00,8.070837020874023
1993-12-03 23:00:00,8.085020065307617
1993-12-06 23:00:00,8.014095306396484
1993-12-07 23:00:00,8.04246997833252
1993-12-08 23:00:00,8.113391876220703
1993-12-09 23:00:00,8.085020065307617
1993-12-10 23:00:00,8.19849967956543
1993-12-13 23:00:00,8.311972618103027
1993-12-14 23:00:00,8.283598899841309
1993-12-15 23:00:00,8.397074699401855
1993-12-16 23:00:00,8.43962574005127
1993-12-17 23:00:00,8.482181549072266
1993-12-20 23:00:00,8.411261558532715
1993-12-21 23:00:00,8.368704795837402
1993-12-22 23:00:00,8.56728744506836
1993-12-23 23:00:00,8.496366500854492
1993-12-27 23:00:00,8.56728744506836
1993-12-28 23:00:00,8.510550498962402
1993-12-29 23:00:00,8.482181549072266
1993-12-30 23:00:00,8.524731636047363
1993-12-31 23:00:00,8.609840393066406
1994-01-03 23:00:00,8.510550498962402
1994-01-04 23:00:00,8.510550498962402
1994-01-05 23:00:00,8.581470489501953
1994-01-06 23:00:00,8.638208389282227
