DATETIME,CARRY,CARRY_CONTRACT,PRICE,PRICE_CONTRACT,FORWARD,FORWARD_CONTRACT,DIVIDEND_YIELD,FUNDING_COST
1991-03-15 23:00:00,2.625,,2.625,,2.625,,0.009523809523809525,0.059800000000000006
1991-03-18 23:00:00,2.6875,,2.6875,,2.6875,,0.009302325581395349,0.0603
1991-03-19 23:00:00,2.625,,2.625,,2.625,,0.009523809523809525,0.0608
1991-03-20 23:00:00,2.65625,,2.65625,,2.65625,,0.009411764705882354,0.060700000000000004
1991-03-21 23:00:00,2.734375,,2.734375,,2.734375,,0.009142857142857144,0.060599999999999994
1991-03-22 23:00:00,2.703125,,2.703125,,2.703125,,0.009248554913294798,0.060599999999999994
1991-03-25 23:00:00,2.703125,,2.703125,,2.703125,,0.009248554913294798,0.060700000000000004
1991-03-26 23:00:00,2.65625,,2.65625,,2.65625,,0.009411764705882354,0.0605
1991-03-27 23:00:00,2.578125,,2.578125,,2.578125,,0.009696969696969697,0.0599
1991-03-28 23:00:00,2.515625,,2.515625,,2.515625,,0.009937888198757764,0.0592
1991-04-01 23:00:00,2.453125,,2.453125,,2.453125,,0.010191082802547772,0.0594
1991-04-02 23:00:00,2.375,,2.375,,2.375,,0.010526315789473684,0.059500000000000004
1991-04-03 23:00:00,2.3125,,2.3125,,2.3125,,0.010810810810810811,0.059500000000000004
1991-04-04 23:00:00,2.40625,,2.40625,,2.40625,,0.01038961038961039,0.0592
1991-04-05 23:00:00,2.484375,,2.484375,,2.484375,,0.010062893081761008,0.058899999999999994
1991-04-08 23:00:00,2.4375,,2.4375,,2.4375,,0.010256410256410256,0.0583
1991-04-09 23:00:00,2.4375,,2.4375,,2.4375,,0.007692307692307694,0.0579
1991-04-10 23:00:00,2.390625,,2.390625,,2.390625,,0.010457516339869282,0.0579
1991-04-11 23:00:00,2.40625,,2.40625,,2.40625,,0.01038961038961039,0.0574
1991-04-12 23:00:00,2.46875,,2.46875,,2.46875,,0.010126582278481013,0.056799999999999996
1991-04-15 23:00:00,2.546875,,2.546875,,2.546875,,0.0098159509202454,0.057699999999999994
1991-04-16 23:00:00,2.625,,2.625,,2.625,,0.009523809523809525,0.0579
1991-04-17 23:00:00,2.578125,,2.578125,,2.578125,,0.009696969696969697,0.057300000000000004
1991-04-18 23:00:00,2.625,,2.625,,2.625,,0.009523809523809525,0.0584
1991-04-19 23:00:00,2.578125,,2.578125,,2.578125,,0.009696969696969697,0.0593
1991-04-22 23:00:00,2.5,,2.5,,2.5,,0.01,0.0587
1991-04-23 23:00:00,2.5,,2.5,,2.5,,0.01,0.058899999999999994
1991-04-24 23:00:00,2.5,,2.5,,2.5,,0.01,0.0584
1991-04-25 23:00:00,2.46875,,2.46875,,2.46875,,0.010126582278481013,0.057800000000000004
1991-04-26 23:00:00,2.4375,,2.4375,,2.4375,,0.010256410256410256,0.0579
1991-04-29 23:00:00,2.34375,,2.34375,,2.34375,,0.010666666666666668,0.057699999999999994
1991-04-30 23:00:00,2.375,,2.375,,2.375,,0.010526315789473684,0.056799999999999996
1991-05-01 23:00:00,2.421875,,2.421875,,2.421875,,0.01032258064516129,0.0571
1991-05-02 23:00:00,2.375,,2.375,,2.375,,0.010526315789473684,0.056299999999999996
1991-05-03 23:00:00,2.390625,,2.390625,,2.390625,,0.010457516339869282,0.0564
1991-05-06 23:00:00,2.359375,,2.359375,,2.359375,,0.010596026490066225,0.0564
1991-05-07 23:00:00,2.34375,,2.34375,,2.34375,,0.010666666666666668,0.0567
1991-05-08 23:00:00,2.4375,,2.4375,,2.4375,,0.010256410256410256,0.0567
1991-05-09 23:00:00,2.46875,,2.46875,,2.46875,,0.010126582278481013,0.0565
1991-05-10 23:00:00,2.375,,2.375,,2.375,,0.010526315789473684,0.0565
1991-05-13 23:00:00,2.28125,,2.28125,,2.28125,,0.010958904109589041,0.0565
1991-05-14 23:00:00,2.3125,,2.3125,,2.3125,,0.010810810810810811,0.056600000000000004
1991-05-15 23:00:00,2.390625,,2.390625,,2.390625,,0.010457516339869282,0.0562
1991-05-16 23:00:00,2.421875,,2.421875,,2.421875,,0.01032258064516129,0.0557
1991-05-17 23:00:00,2.40625,,2.40625,,2.40625,,0.01038961038961039,0.0557
1991-05-20 23:00:00,2.40625,,2.40625,,2.40625,,0.01038961038961039,0.056299999999999996
1991-05-21 23:00:00,2.375,,2.375,,2.375,,0.010526315789473684,0.0567
1991-05-22 23:00:00,2.390625,,2.390625,,2.390625,,0.010457516339869282,0.056299999999999996
1991-05-23 23:00:00,2.40625,,2.40625,,2.40625,,0.01038961038961039,0.0557
1991-05-24 23:00:00,2.390625,,2.390625,,2.390625,,0.010457516339869282,0.0557
1991-05-28 23:00:00,2.4375,,2.4375,,2.4375,,0.010256410256410256,0.0559
1991-05-29 23:00:00,2.4375,,2.4375,,2.4375,,0.010256410256410256,0.0562
1991-05-30 23:00:00,2.5,,2.5,,2.5,,0.01,0.0562
1991-05-31 23:00:00,2.625,,2.625,,2.625,,0.009523809523809525,0.0571
1991-06-03 23:00:00,2.625,,2.625,,2.625,,0.009523809523809525,0.0579
1991-06-04 23:00:00,2.625,,2.625,,2.625,,0.009523809523809525,0.0574
1991-06-05 23:00:00,2.578125,,2.578125,,2.578125,,0.009696969696969697,0.0576
1991-06-06 23:00:00,2.59375,,2.59375,,2.59375,,0.00963855421686747,0.0574
1991-06-07 23:00:00,2.53125,,2.53125,,2.53125,,0.009876543209876543,0.0574
1991-06-10 23:00:00,2.53125,,2.53125,,2.53125,,0.009876543209876543,0.057699999999999994
1991-06-11 23:00:00,2.5,,2.5,,2.5,,0.01,0.0574
1991-06-12 23:00:00,2.5,,2.5,,2.5,,0.01,0.057300000000000004
1991-06-13 23:00:00,2.484375,,2.484375,,2.484375,,0.010062893081761008,0.0576
1991-06-14 23:00:00,2.46875,,2.46875,,2.46875,,0.010126582278481013,0.057699999999999994
1991-06-17 23:00:00,2.453125,,2.453125,,2.453125,,0.010191082802547772,0.057800000000000004
1991-06-18 23:00:00,2.46875,,2.46875,,2.46875,,0.010126582278481013,0.057999999999999996
1991-06-19 23:00:00,2.5,,2.5,,2.5,,0.01,0.0574
1991-06-20 23:00:00,2.375,,2.375,,2.375,,0.010526315789473684,0.0574
1991-06-21 23:00:00,2.34375,,2.34375,,2.34375,,0.010666666666666668,0.0575
1991-06-24 23:00:00,2.375,,2.375,,2.375,,0.010526315789473684,0.0575
1991-06-25 23:00:00,2.359375,,2.359375,,2.359375,,0.010596026490066225,0.0575
1991-06-26 23:00:00,2.3125,,2.3125,,2.3125,,0.010810810810810811,0.057300000000000004
1991-06-27 23:00:00,2.3125,,2.3125,,2.3125,,0.010810810810810811,0.057300000000000004
1991-06-28 23:00:00,2.25,,2.25,,2.25,,0.011111111111111112,0.0571
1991-07-01 23:00:00,2.203125,,2.203125,,2.203125,,0.011347517730496455,0.0576
1991-07-02 23:00:00,2.234375,,2.234375,,2.234375,,0.011188811188811189,0.0575
1991-07-03 23:00:00,2.25,,2.25,,2.25,,0.011111111111111112,0.057300000000000004
1991-07-05 23:00:00,2.25,,2.25,,2.25,,0.011111111111111112,0.0576
1991-07-08 23:00:00,2.296875,,2.296875,,2.296875,,0.0108843537414966,0.0575
1991-07-09 23:00:00,2.265625,,2.265625,,2.265625,,0.013793103448275862,0.0576
1991-07-10 23:00:00,2.234375,,2.234375,,2.234375,,0.011188811188811189,0.0575
1991-07-11 23:00:00,2.3125,,2.3125,,2.3125,,0.010810810810810811,0.0574
1991-07-12 23:00:00,2.296875,,2.296875,,2.296875,,0.0108843537414966,0.0572
1991-07-15 23:00:00,2.375,,2.375,,2.375,,0.010526315789473684,0.0575
1991-07-16 23:00:00,2.421875,,2.421875,,2.421875,,0.01032258064516129,0.0576
1991-07-17 23:00:00,2.59375,,2.59375,,2.59375,,0.00963855421686747,0.0579
1991-07-18 23:00:00,2.671875,,2.671875,,2.671875,,0.00935672514619883,0.057699999999999994
1991-07-19 23:00:00,2.625,,2.625,,2.625,,0.009523809523809525,0.0576
1991-07-22 23:00:00,2.59375,,2.59375,,2.59375,,0.00963855421686747,0.0576
1991-07-23 23:00:00,2.578125,,2.578125,,2.578125,,0.009696969696969697,0.0576
1991-07-24 23:00:00,2.578125,,2.578125,,2.578125,,0.009696969696969697,0.0575
1991-07-25 23:00:00,2.5625,,2.5625,,2.5625,,0.00975609756097561,0.0576
1991-07-26 23:00:00,2.59375,,2.59375,,2.59375,,0.00963855421686747,0.0576
1991-07-29 23:00:00,2.609375,,2.609375,,2.609375,,0.009580838323353293,0.0575
1991-07-30 23:00:00,2.625,,2.625,,2.625,,0.009523809523809525,0.057300000000000004
1991-07-31 23:00:00,2.53125,,2.53125,,2.53125,,0.009876543209876543,0.057
1991-08-01 23:00:00,2.5625,,2.5625,,2.5625,,0.00975609756097561,0.0572
1991-08-02 23:00:00,2.546875,,2.546875,,2.546875,,0.0098159509202454,0.056299999999999996
1991-08-05 23:00:00,2.5625,,2.5625,,2.5625,,0.00975609756097561,0.056799999999999996
1991-08-06 23:00:00,2.59375,,2.59375,,2.59375,,0.00963855421686747,0.0558
1991-08-07 23:00:00,2.625,,2.625,,2.625,,0.009523809523809525,0.0555
1991-08-08 23:00:00,2.640625,,2.640625,,2.640625,,0.009467455621301775,0.0554
1991-08-09 23:00:00,2.65625,,2.65625,,2.65625,,0.009411764705882354,0.0548
1991-08-12 23:00:00,2.65625,,2.65625,,2.65625,,0.009411764705882354,0.0548
1991-08-13 23:00:00,2.6875,,2.6875,,2.6875,,0.009302325581395349,0.0545
1991-08-14 23:00:00,2.75,,2.75,,2.75,,0.009090909090909092,0.0545
1991-08-15 23:00:00,2.75,,2.75,,2.75,,0.009090909090909092,0.0546
1991-08-16 23:00:00,2.703125,,2.703125,,2.703125,,0.009248554913294798,0.0542
1991-08-19 23:00:00,2.609375,,2.609375,,2.609375,,0.009580838323353293,0.0527
1991-08-20 23:00:00,2.625,,2.625,,2.625,,0.009523809523809525,0.0526
1991-08-21 23:00:00,2.625,,2.625,,2.625,,0.009523809523809525,0.054400000000000004
1991-08-22 23:00:00,2.59375,,2.59375,,2.59375,,0.00963855421686747,0.0547
1991-08-23 23:00:00,2.75,,2.75,,2.75,,0.009090909090909092,0.0556
1991-08-26 23:00:00,2.75,,2.75,,2.75,,0.009090909090909092,0.0558
1991-08-27 23:00:00,2.8125,,2.8125,,2.8125,,0.008888888888888889,0.0555
1991-08-28 23:00:00,2.9375,,2.9375,,2.9375,,0.00851063829787234,0.0546
1991-08-29 23:00:00,2.953125,,2.953125,,2.953125,,0.008465608465608466,0.054299999999999994
1991-08-30 23:00:00,2.921875,,2.921875,,2.921875,,0.008556149732620321,0.054900000000000004
1991-09-03 23:00:00,2.78125,,2.78125,,2.78125,,0.008988764044943821,0.055099999999999996
1991-09-04 23:00:00,2.765625,,2.765625,,2.765625,,0.00903954802259887,0.054900000000000004
1991-09-05 23:00:00,2.8125,,2.8125,,2.8125,,0.008888888888888889,0.0548
1991-09-06 23:00:00,2.828125,,2.828125,,2.828125,,0.008839779005524863,0.0545
1991-09-09 23:00:00,2.84375,,2.84375,,2.84375,,0.008791208791208791,0.054400000000000004
1991-09-10 23:00:00,2.84375,,2.84375,,2.84375,,0.008791208791208791,0.054000000000000006
1991-09-11 23:00:00,2.84375,,2.84375,,2.84375,,0.008791208791208791,0.0542
1991-09-12 23:00:00,2.84375,,2.84375,,2.84375,,0.008791208791208791,0.0538
1991-09-13 23:00:00,2.84375,,2.84375,,2.84375,,0.008791208791208791,0.053099999999999994
1991-09-16 23:00:00,2.84375,,2.84375,,2.84375,,0.008791208791208791,0.053399999999999996
1991-09-17 23:00:00,2.890625,,2.890625,,2.890625,,0.008648648648648649,0.0535
1991-09-18 23:00:00,2.9375,,2.9375,,2.9375,,0.00851063829787234,0.053399999999999996
1991-09-19 23:00:00,3.03125,,3.03125,,3.03125,,0.008247422680412371,0.0536
1991-09-20 23:00:00,3.03125,,3.03125,,3.03125,,0.008247422680412371,0.0535
1991-09-23 23:00:00,2.96875,,2.96875,,2.96875,,0.008421052631578947,0.0537
1991-09-24 23:00:00,2.875,,2.875,,2.875,,0.008695652173913044,0.0533
1991-09-25 23:00:00,2.875,,2.875,,2.875,,0.008695652173913044,0.0533
1991-09-26 23:00:00,2.953125,,2.953125,,2.953125,,0.008465608465608466,0.0528
1991-09-27 23:00:00,2.96875,,2.96875,,2.96875,,0.008421052631578947,0.0528
1991-09-30 23:00:00,2.984375,,2.984375,,2.984375,,0.008376963350785341,0.0526
1991-10-01 23:00:00,2.859375,,2.859375,,2.859375,,0.008743169398907104,0.0525
1991-10-02 23:00:00,2.90625,,2.90625,,2.90625,,0.008602150537634409,0.0524
1991-10-03 23:00:00,2.890625,,2.890625,,2.890625,,0.008648648648648649,0.0519
1991-10-04 23:00:00,2.890625,,2.890625,,2.890625,,0.008648648648648649,0.051699999999999996
1991-10-07 23:00:00,2.9375,,2.9375,,2.9375,,0.00851063829787234,0.0518
1991-10-08 23:00:00,2.9375,,2.9375,,2.9375,,0.010638297872340425,0.051699999999999996
1991-10-09 23:00:00,2.90625,,2.90625,,2.90625,,0.008602150537634409,0.0516
1991-10-10 23:00:00,2.90625,,2.90625,,2.90625,,0.008602150537634409,0.0518
1991-10-11 23:00:00,2.921875,,2.921875,,2.921875,,0.008556149732620321,0.051399999999999994
1991-10-14 23:00:00,2.96875,,2.96875,,2.96875,,0.008421052631578947,0.051399999999999994
1991-10-15 23:00:00,3.015625,,3.015625,,3.015625,,0.008290155440414507,0.0513
1991-10-16 23:00:00,3.0,,3.0,,3.0,,0.008333333333333333,0.0512
1991-10-17 23:00:00,3.03125,,3.03125,,3.03125,,0.008247422680412371,0.0518
1991-10-18 23:00:00,3.0,,3.0,,3.0,,0.008333333333333333,0.0518
1991-10-21 23:00:00,2.984375,,2.984375,,2.984375,,0.008376963350785341,0.0519
1991-10-22 23:00:00,2.875,,2.875,,2.875,,0.008695652173913044,0.0521
1991-10-23 23:00:00,2.890625,,2.890625,,2.890625,,0.008648648648648649,0.0519
1991-10-24 23:00:00,2.84375,,2.84375,,2.84375,,0.008791208791208791,0.0512
1991-10-25 23:00:00,2.765625,,2.765625,,2.765625,,0.00903954802259887,0.051100000000000007
1991-10-28 23:00:00,2.84375,,2.84375,,2.84375,,0.008791208791208791,0.0509
1991-10-29 23:00:00,2.765625,,2.765625,,2.765625,,0.00903954802259887,0.050300000000000004
1991-10-30 23:00:00,2.796875,,2.796875,,2.796875,,0.00893854748603352,0.049800000000000004
1991-10-31 23:00:00,2.84375,,2.84375,,2.84375,,0.008791208791208791,0.0496
1991-11-01 23:00:00,2.9375,,2.9375,,2.9375,,0.00851063829787234,0.0489
1991-11-04 23:00:00,3.03125,,3.03125,,3.03125,,0.008247422680412371,0.048799999999999996
1991-11-05 23:00:00,3.109375,,3.109375,,3.109375,,0.008040201005025126,0.049
1991-11-06 23:00:00,3.03125,,3.03125,,3.03125,,0.008247422680412371,0.047599999999999996
1991-11-07 23:00:00,3.03125,,3.03125,,3.03125,,0.008247422680412371,0.047599999999999996
1991-11-08 23:00:00,3.0625,,3.0625,,3.0625,,0.00816326530612245,0.0475
1991-11-11 23:00:00,3.03125,,3.03125,,3.03125,,0.008247422680412371,0.0475
1991-11-12 23:00:00,3.03125,,3.03125,,3.03125,,0.008247422680412371,0.04769999999999999
1991-11-13 23:00:00,3.125,,3.125,,3.125,,0.008,0.047599999999999996
1991-11-14 23:00:00,3.03125,,3.03125,,3.03125,,0.008247422680412371,0.047599999999999996
1991-11-15 23:00:00,2.9375,,2.9375,,2.9375,,0.00851063829787234,0.0472
1991-11-18 23:00:00,2.875,,2.875,,2.875,,0.008695652173913044,0.0471
1991-11-19 23:00:00,2.8125,,2.8125,,2.8125,,0.008888888888888889,0.0466
1991-11-20 23:00:00,2.78125,,2.78125,,2.78125,,0.008988764044943821,0.0462
1991-11-21 23:00:00,2.796875,,2.796875,,2.796875,,0.00893854748603352,0.045599999999999995
1991-11-22 23:00:00,2.75,,2.75,,2.75,,0.009090909090909092,0.0455
1991-11-25 23:00:00,2.765625,,2.765625,,2.765625,,0.00903954802259887,0.0455
1991-11-26 23:00:00,2.625,,2.625,,2.625,,0.009523809523809525,0.0452
1991-11-27 23:00:00,2.625,,2.625,,2.625,,0.009523809523809525,0.0451
1991-11-29 23:00:00,2.65625,,2.65625,,2.65625,,0.009411764705882354,0.0447
1991-12-02 23:00:00,2.59375,,2.59375,,2.59375,,0.00963855421686747,0.0451
1991-12-03 23:00:00,2.65625,,2.65625,,2.65625,,0.009411764705882354,0.044800000000000006
1991-12-04 23:00:00,2.625,,2.625,,2.625,,0.009523809523809525,0.0443
1991-12-05 23:00:00,2.640625,,2.640625,,2.640625,,0.009467455621301775,0.0443
1991-12-06 23:00:00,2.640625,,2.640625,,2.640625,,0.009467455621301775,0.0436
1991-12-09 23:00:00,2.59375,,2.59375,,2.59375,,0.00963855421686747,0.042800000000000005
1991-12-10 23:00:00,2.5,,2.5,,2.5,,0.01,0.0432
1991-12-11 23:00:00,2.546875,,2.546875,,2.546875,,0.0098159509202454,0.0426
1991-12-12 23:00:00,2.53125,,2.53125,,2.53125,,0.009876543209876543,0.0426
1991-12-13 23:00:00,2.5,,2.5,,2.5,,0.01,0.0426
1991-12-16 23:00:00,2.515625,,2.515625,,2.515625,,0.009937888198757764,0.0425
1991-12-17 23:00:00,2.53125,,2.53125,,2.53125,,0.009876543209876543,0.042199999999999994
1991-12-18 23:00:00,2.578125,,2.578125,,2.578125,,0.009696969696969697,0.042300000000000004
1991-12-19 23:00:00,2.546875,,2.546875,,2.546875,,0.0098159509202454,0.0415
1991-12-20 23:00:00,2.515625,,2.515625,,2.515625,,0.009937888198757764,0.0384
1991-12-23 23:00:00,2.421875,,2.421875,,2.421875,,0.01032258064516129,0.0387
1991-12-24 23:00:00,2.515625,,2.515625,,2.515625,,0.009937888198757764,0.0391
1991-12-26 23:00:00,2.5,,2.5,,2.5,,0.01,0.0392
1991-12-27 23:00:00,2.46875,,2.46875,,2.46875,,0.010126582278481013,0.039599999999999996
1991-12-30 23:00:00,2.4375,,2.4375,,2.4375,,0.010256410256410256,0.0397
1991-12-31 23:00:00,2.4375,,2.4375,,2.4375,,0.010256410256410256,0.039599999999999996
1992-01-02 23:00:00,2.390625,,2.390625,,2.390625,,0.010457516339869282,0.039599999999999996
1992-01-03 23:00:00,2.375,,2.375,,2.375,,0.010526315789473684,0.0395
1992-01-06 23:00:00,2.328125,,2.328125,,2.328125,,0.010738255033557048,0.0392
1992-01-07 23:00:00,2.140625,,2.140625,,2.140625,,0.011678832116788322,0.0385
1992-01-08 23:00:00,2.125,,2.125,,2.125,,0.011764705882352941,0.0382
1992-01-09 23:00:00,2.171875,,2.171875,,2.171875,,0.008633093525179858,0.0387
1992-01-10 23:00:00,2.234375,,2.234375,,2.234375,,0.008391608391608393,0.0392
1992-01-13 23:00:00,2.296875,,2.296875,,2.296875,,0.00816326530612245,0.0392
1992-01-14 23:00:00,2.21875,,2.21875,,2.21875,,0.008450704225352114,0.0392
1992-01-15 23:00:00,2.28125,,2.28125,,2.28125,,0.008219178082191782,0.0394
1992-01-16 23:00:00,2.328125,,2.328125,,2.328125,,0.008053691275167786,0.038900000000000004
1992-01-17 23:00:00,2.421875,,2.421875,,2.421875,,0.007741935483870969,0.038900000000000004
1992-01-20 23:00:00,2.515625,,2.515625,,2.515625,,0.007453416149068324,0.038900000000000004
1992-01-21 23:00:00,2.515625,,2.515625,,2.515625,,0.007453416149068324,0.038599999999999995
1992-01-22 23:00:00,2.484375,,2.484375,,2.484375,,0.007547169811320756,0.0385
1992-01-23 23:00:00,2.453125,,2.453125,,2.453125,,0.007643312101910829,0.0387
1992-01-24 23:00:00,2.3125,,2.3125,,2.3125,,0.008108108108108109,0.0391
1992-01-27 23:00:00,2.265625,,2.265625,,2.265625,,0.00827586206896552,0.0393
1992-01-28 23:00:00,2.1875,,2.1875,,2.1875,,0.008571428571428572,0.0393
1992-01-29 23:00:00,2.203125,,2.203125,,2.203125,,0.008510638297872342,0.039599999999999996
1992-01-30 23:00:00,2.1875,,2.1875,,2.1875,,0.008571428571428572,0.0393
1992-01-31 23:00:00,2.25,,2.25,,2.25,,0.008333333333333335,0.0394
1992-02-03 23:00:00,2.234375,,2.234375,,2.234375,,0.008391608391608393,0.039599999999999996
1992-02-04 23:00:00,2.203125,,2.203125,,2.203125,,0.008510638297872342,0.0394
1992-02-05 23:00:00,2.171875,,2.171875,,2.171875,,0.008633093525179858,0.0394
1992-02-06 23:00:00,2.09375,,2.09375,,2.09375,,0.008955223880597015,0.0391
1992-02-07 23:00:00,2.21875,,2.21875,,2.21875,,0.008450704225352114,0.0384
1992-02-10 23:00:00,2.328125,,2.328125,,2.328125,,0.008053691275167786,0.0383
1992-02-11 23:00:00,2.3125,,2.3125,,2.3125,,0.008108108108108109,0.0385
1992-02-12 23:00:00,2.3125,,2.3125,,2.3125,,0.008108108108108109,0.0385
1992-02-13 23:00:00,2.296875,,2.296875,,2.296875,,0.00816326530612245,0.038900000000000004
1992-02-14 23:00:00,2.328125,,2.328125,,2.328125,,0.008053691275167786,0.038900000000000004
1992-02-18 23:00:00,2.296875,,2.296875,,2.296875,,0.00816326530612245,0.0393
1992-02-19 23:00:00,2.265625,,2.265625,,2.265625,,0.00827586206896552,0.0395
1992-02-20 23:00:00,2.296875,,2.296875,,2.296875,,0.00816326530612245,0.0398
1992-02-21 23:00:00,2.3125,,2.3125,,2.3125,,0.008108108108108109,0.0403
1992-02-24 23:00:00,2.3125,,2.3125,,2.3125,,0.008108108108108109,0.0407
1992-02-25 23:00:00,2.28125,,2.28125,,2.28125,,0.008219178082191782,0.0407
1992-02-26 23:00:00,2.265625,,2.265625,,2.265625,,0.00827586206896552,0.0405
1992-02-27 23:00:00,2.265625,,2.265625,,2.265625,,0.00827586206896552,0.0404
1992-02-28 23:00:00,2.234375,,2.234375,,2.234375,,0.008391608391608393,0.0403
1992-03-02 23:00:00,2.25,,2.25,,2.25,,0.008333333333333335,0.0414
1992-03-03 23:00:00,2.25,,2.25,,2.25,,0.008333333333333335,0.0414
1992-03-04 23:00:00,2.25,,2.25,,2.25,,0.008333333333333335,0.041299999999999996
1992-03-05 23:00:00,2.28125,,2.28125,,2.28125,,0.008219178082191782,0.0414
1992-03-06 23:00:00,2.28125,,2.28125,,2.28125,,0.008219178082191782,0.0414
1992-03-09 23:00:00,2.328125,,2.328125,,2.328125,,0.008053691275167786,0.040999999999999995
1992-03-10 23:00:00,2.390625,,2.390625,,2.390625,,0.007843137254901962,0.041100000000000005
1992-03-11 23:00:00,2.40625,,2.40625,,2.40625,,0.007792207792207793,0.041100000000000005
1992-03-12 23:00:00,2.40625,,2.40625,,2.40625,,0.007792207792207793,0.0412
1992-03-13 23:00:00,2.46875,,2.46875,,2.46875,,0.007594936708860761,0.0416
1992-03-16 23:00:00,2.40625,,2.40625,,2.40625,,0.007792207792207793,0.0418
1992-03-17 23:00:00,2.4375,,2.4375,,2.4375,,0.007692307692307694,0.0416
1992-03-18 23:00:00,2.40625,,2.40625,,2.40625,,0.007792207792207793,0.0415
1992-03-19 23:00:00,2.40625,,2.40625,,2.40625,,0.007792207792207793,0.0415
1992-03-20 23:00:00,2.46875,,2.46875,,2.46875,,0.007594936708860761,0.0416
1992-03-23 23:00:00,2.5,,2.5,,2.5,,0.0075000000000000015,0.0417
1992-03-24 23:00:00,2.5625,,2.5625,,2.5625,,0.007317073170731709,0.0415
1992-03-25 23:00:00,2.578125,,2.578125,,2.578125,,0.007272727272727274,0.041100000000000005
1992-03-26 23:00:00,2.6875,,2.6875,,2.6875,,0.006976744186046512,0.041100000000000005
1992-03-27 23:00:00,2.625,,2.625,,2.625,,0.0071428571428571435,0.041100000000000005
1992-03-30 23:00:00,2.625,,2.625,,2.625,,0.0071428571428571435,0.0416
1992-03-31 23:00:00,2.65625,,2.65625,,2.65625,,0.007058823529411766,0.0415
1992-04-01 23:00:00,2.609375,,2.609375,,2.609375,,0.007185628742514971,0.041100000000000005
1992-04-02 23:00:00,2.59375,,2.59375,,2.59375,,0.0072289156626506035,0.0412
1992-04-03 23:00:00,2.5625,,2.5625,,2.5625,,0.007317073170731709,0.0406
1992-04-06 23:00:00,2.734375,,2.734375,,2.734375,,0.0068571428571428585,0.0403
1992-04-07 23:00:00,2.6875,,2.6875,,2.6875,,0.006976744186046512,0.039599999999999996
1992-04-08 23:00:00,2.625,,2.625,,2.625,,0.0071428571428571435,0.039599999999999996
1992-04-09 23:00:00,2.75,,2.75,,2.75,,0.00681818181818182,0.0375
1992-04-10 23:00:00,2.734375,,2.734375,,2.734375,,0.0068571428571428585,0.0374
1992-04-13 23:00:00,2.765625,,2.765625,,2.765625,,0.006779661016949153,0.037000000000000005
1992-04-14 23:00:00,2.8125,,2.8125,,2.8125,,0.006666666666666668,0.037000000000000005
1992-04-15 23:00:00,2.828125,,2.828125,,2.828125,,0.006629834254143647,0.037000000000000005
1992-04-16 23:00:00,2.8125,,2.8125,,2.8125,,0.006666666666666668,0.0373
1992-04-20 23:00:00,2.890625,,2.890625,,2.890625,,0.006486486486486487,0.0379
1992-04-21 23:00:00,2.90625,,2.90625,,2.90625,,0.006451612903225807,0.0377
1992-04-22 23:00:00,2.875,,2.875,,2.875,,0.006521739130434784,0.0377
1992-04-23 23:00:00,2.875,,2.875,,2.875,,0.006521739130434784,0.037599999999999995
1992-04-24 23:00:00,3.0,,3.0,,3.0,,0.006250000000000001,0.037599999999999995
1992-04-27 23:00:00,3.046875,,3.046875,,3.046875,,0.006153846153846155,0.0382
1992-04-28 23:00:00,3.03125,,3.03125,,3.03125,,0.006185567010309279,0.038
1992-04-29 23:00:00,3.03125,,3.03125,,3.03125,,0.006185567010309279,0.038
1992-04-30 23:00:00,3.046875,,3.046875,,3.046875,,0.006153846153846155,0.0379
1992-05-01 23:00:00,3.046875,,3.046875,,3.046875,,0.006153846153846155,0.037200000000000004
1992-05-04 23:00:00,3.0625,,3.0625,,3.0625,,0.006122448979591837,0.0371
1992-05-05 23:00:00,3.078125,,3.078125,,3.078125,,0.006091370558375635,0.037200000000000004
1992-05-06 23:00:00,3.015625,,3.015625,,3.015625,,0.006217616580310881,0.037000000000000005
1992-05-07 23:00:00,2.96875,,2.96875,,2.96875,,0.006315789473684211,0.0371
1992-05-08 23:00:00,2.953125,,2.953125,,2.953125,,0.00634920634920635,0.037200000000000004
1992-05-11 23:00:00,2.90625,,2.90625,,2.90625,,0.006451612903225807,0.0374
1992-05-12 23:00:00,2.796875,,2.796875,,2.796875,,0.00670391061452514,0.037000000000000005
1992-05-13 23:00:00,2.765625,,2.765625,,2.765625,,0.006779661016949153,0.036699999999999997
1992-05-14 23:00:00,2.84375,,2.84375,,2.84375,,0.006593406593406594,0.0365
1992-05-15 23:00:00,2.890625,,2.890625,,2.890625,,0.006486486486486487,0.0366
1992-05-18 23:00:00,3.0,,3.0,,3.0,,0.006250000000000001,0.0369
1992-05-19 23:00:00,3.046875,,3.046875,,3.046875,,0.006153846153846155,0.0362
1992-05-20 23:00:00,3.09375,,3.09375,,3.09375,,0.0060606060606060615,0.0365
1992-05-21 23:00:00,3.09375,,3.09375,,3.09375,,0.0060606060606060615,0.037599999999999995
1992-05-22 23:00:00,3.140625,,3.140625,,3.140625,,0.005970149253731344,0.0377
1992-05-26 23:00:00,3.1875,,3.1875,,3.1875,,0.005882352941176471,0.0384
1992-05-27 23:00:00,3.125,,3.125,,3.125,,0.006000000000000001,0.0379
1992-05-28 23:00:00,3.125,,3.125,,3.125,,0.006000000000000001,0.0377
1992-05-29 23:00:00,3.09375,,3.09375,,3.09375,,0.0060606060606060615,0.0379
1992-06-01 23:00:00,3.171875,,3.171875,,3.171875,,0.005911330049261085,0.0382
1992-06-02 23:00:00,3.140625,,3.140625,,3.140625,,0.005970149253731344,0.0383
1992-06-03 23:00:00,3.15625,,3.15625,,3.15625,,0.0059405940594059415,0.038
1992-06-04 23:00:00,3.140625,,3.140625,,3.140625,,0.005970149253731344,0.0378
1992-06-05 23:00:00,3.1875,,3.1875,,3.1875,,0.005882352941176471,0.0377
1992-06-08 23:00:00,3.3125,,3.3125,,3.3125,,0.0056603773584905665,0.0378
1992-06-09 23:00:00,3.3125,,3.3125,,3.3125,,0.0056603773584905665,0.0377
1992-06-10 23:00:00,3.28125,,3.28125,,3.28125,,0.005714285714285715,0.0377
1992-06-11 23:00:00,3.40625,,3.40625,,3.40625,,0.005504587155963304,0.0375
1992-06-12 23:00:00,3.34375,,3.34375,,3.34375,,0.005607476635514019,0.0375
1992-06-15 23:00:00,3.3125,,3.3125,,3.3125,,0.0056603773584905665,0.0375
1992-06-16 23:00:00,3.296875,,3.296875,,3.296875,,0.005687203791469195,0.037200000000000004
1992-06-17 23:00:00,3.234375,,3.234375,,3.234375,,0.005797101449275363,0.037000000000000005
1992-06-18 23:00:00,3.234375,,3.234375,,3.234375,,0.005797101449275363,0.0369
1992-06-19 23:00:00,3.234375,,3.234375,,3.234375,,0.005797101449275363,0.0374
1992-06-22 23:00:00,3.203125,,3.203125,,3.203125,,0.005853658536585367,0.0375
1992-06-23 23:00:00,3.203125,,3.203125,,3.203125,,0.005853658536585367,0.0377
1992-06-24 23:00:00,3.21875,,3.21875,,3.21875,,0.005825242718446603,0.037200000000000004
1992-06-25 23:00:00,3.125,,3.125,,3.125,,0.006000000000000001,0.0371
1992-06-26 23:00:00,3.140625,,3.140625,,3.140625,,0.005970149253731344,0.0371
1992-06-29 23:00:00,3.171875,,3.171875,,3.171875,,0.005911330049261085,0.0366
1992-06-30 23:00:00,3.1875,,3.1875,,3.1875,,0.005882352941176471,0.0365
1992-07-01 23:00:00,3.25,,3.25,,3.25,,0.00576923076923077,0.0363
1992-07-02 23:00:00,3.28125,,3.28125,,3.28125,,0.005714285714285715,0.0331
1992-07-06 23:00:00,3.3125,,3.3125,,3.3125,,0.0056603773584905665,0.0329
1992-07-07 23:00:00,3.328125,,3.328125,,3.328125,,0.00563380281690141,0.032799999999999996
1992-07-08 23:00:00,3.328125,,3.328125,,3.328125,,0.0037558685446009393,0.0329
1992-07-09 23:00:00,3.359375,,3.359375,,3.359375,,0.00558139534883721,0.032799999999999996
1992-07-10 23:00:00,3.328125,,3.328125,,3.328125,,0.00563380281690141,0.0329
1992-07-13 23:00:00,3.359375,,3.359375,,3.359375,,0.00558139534883721,0.0329
1992-07-14 23:00:00,3.578125,,3.578125,,3.578125,,0.005240174672489084,0.032799999999999996
1992-07-15 23:00:00,3.53125,,3.53125,,3.53125,,0.005309734513274337,0.0325
1992-07-16 23:00:00,3.421875,,3.421875,,3.421875,,0.0054794520547945215,0.032400000000000005
1992-07-17 23:00:00,3.4375,,3.4375,,3.4375,,0.005454545454545455,0.0323
1992-07-20 23:00:00,3.390625,,3.390625,,3.390625,,0.005529953917050692,0.0326
1992-07-21 23:00:00,3.40625,,3.40625,,3.40625,,0.005504587155963304,0.0326
1992-07-22 23:00:00,3.484375,,3.484375,,3.484375,,0.005381165919282512,0.032400000000000005
1992-07-23 23:00:00,3.5,,3.5,,3.5,,0.005357142857142858,0.0323
1992-07-24 23:00:00,3.609375,,3.609375,,3.609375,,0.005194805194805196,0.0323
1992-07-27 23:00:00,3.59375,,3.59375,,3.59375,,0.0052173913043478265,0.0326
1992-07-28 23:00:00,3.5625,,3.5625,,3.5625,,0.005263157894736843,0.0326
1992-07-29 23:00:00,3.578125,,3.578125,,3.578125,,0.005240174672489084,0.0325
1992-07-30 23:00:00,3.640625,,3.640625,,3.640625,,0.005150214592274679,0.0325
1992-07-31 23:00:00,3.640625,,3.640625,,3.640625,,0.005150214592274679,0.0325
1992-08-03 23:00:00,3.703125,,3.703125,,3.703125,,0.005063291139240507,0.0325
1992-08-04 23:00:00,3.71875,,3.71875,,3.71875,,0.00504201680672269,0.032400000000000005
1992-08-05 23:00:00,3.40625,,3.40625,,3.40625,,0.005504587155963304,0.032400000000000005
1992-08-06 23:00:00,3.25,,3.25,,3.25,,0.00576923076923077,0.0323
1992-08-07 23:00:00,3.515625,,3.515625,,3.515625,,0.005333333333333334,0.0321
1992-08-10 23:00:00,3.546875,,3.546875,,3.546875,,0.005286343612334802,0.032
1992-08-11 23:00:00,3.546875,,3.546875,,3.546875,,0.005286343612334802,0.032
1992-08-12 23:00:00,3.59375,,3.59375,,3.59375,,0.0052173913043478265,0.0319
1992-08-13 23:00:00,3.734375,,3.734375,,3.734375,,0.005020920502092051,0.0316
1992-08-14 23:00:00,3.75,,3.75,,3.75,,0.005000000000000001,0.0313
1992-08-17 23:00:00,3.6875,,3.6875,,3.6875,,0.005084745762711865,0.0316
1992-08-18 23:00:00,3.59375,,3.59375,,3.59375,,0.0052173913043478265,0.031400000000000004
1992-08-19 23:00:00,3.5625,,3.5625,,3.5625,,0.005263157894736843,0.0315
1992-08-20 23:00:00,3.59375,,3.59375,,3.59375,,0.0052173913043478265,0.0315
1992-08-21 23:00:00,3.59375,,3.59375,,3.59375,,0.0052173913043478265,0.031400000000000004
1992-08-24 23:00:00,3.578125,,3.578125,,3.578125,,0.005240174672489084,0.0323
1992-08-25 23:00:00,3.671875,,3.671875,,3.671875,,0.005106382978723405,0.032400000000000005
1992-08-26 23:00:00,3.75,,3.75,,3.75,,0.005000000000000001,0.0323
1992-08-27 23:00:00,3.78125,,3.78125,,3.78125,,0.0049586776859504135,0.0323
1992-08-28 23:00:00,3.9375,,3.9375,,3.9375,,0.004761904761904762,0.0323
1992-08-31 23:00:00,3.875,,3.875,,3.875,,0.004838709677419356,0.0323
1992-09-01 23:00:00,3.90625,,3.90625,,3.90625,,0.0048000000000000004,0.0322
1992-09-02 23:00:00,3.890625,,3.890625,,3.890625,,0.004819277108433735,0.0321
1992-09-03 23:00:00,3.921875,,3.921875,,3.921875,,0.004780876494023905,0.0321
1992-09-04 23:00:00,3.953125,,3.953125,,3.953125,,0.0047430830039525695,0.0298
1992-09-08 23:00:00,4.078125,,4.078125,,4.078125,,0.004597701149425288,0.0296
1992-09-09 23:00:00,4.09375,,4.09375,,4.09375,,0.004580152671755726,0.0297
1992-09-10 23:00:00,4.078125,,4.078125,,4.078125,,0.004597701149425288,0.0297
1992-09-11 23:00:00,4.109375,,4.109375,,4.109375,,0.004562737642585552,0.0298
1992-09-14 23:00:00,4.125,,4.125,,4.125,,0.004545454545454546,0.029500000000000002
1992-09-15 23:00:00,4.109375,,4.109375,,4.109375,,0.004562737642585552,0.0298
1992-09-16 23:00:00,4.125,,4.125,,4.125,,0.004545454545454546,0.0296
1992-09-17 23:00:00,4.21875,,4.21875,,4.21875,,0.004444444444444445,0.0294
1992-09-18 23:00:00,4.3125,,4.3125,,4.3125,,0.004347826086956523,0.0294
1992-09-21 23:00:00,4.34375,,4.34375,,4.34375,,0.004316546762589929,0.0297
1992-09-22 23:00:00,4.359375,,4.359375,,4.359375,,0.004301075268817205,0.0298
1992-09-23 23:00:00,4.375,,4.375,,4.375,,0.004285714285714286,0.0298
1992-09-24 23:00:00,4.46875,,4.46875,,4.46875,,0.004195804195804197,0.029500000000000002
1992-09-25 23:00:00,4.25,,4.25,,4.25,,0.004411764705882354,0.0286
1992-09-28 23:00:00,4.125,,4.125,,4.125,,0.004545454545454546,0.0279
1992-09-29 23:00:00,4.234375,,4.234375,,4.234375,,0.004428044280442805,0.0279
1992-09-30 23:00:00,4.15625,,4.15625,,4.15625,,0.004511278195488722,0.0275
1992-10-01 23:00:00,4.03125,,4.03125,,4.03125,,0.004651162790697675,0.026699999999999998
1992-10-02 23:00:00,4.046875,,4.046875,,4.046875,,0.004633204633204634,0.0269
1992-10-05 23:00:00,3.96875,,3.96875,,3.96875,,0.0047244094488188984,0.0275
1992-10-06 23:00:00,3.9375,,3.9375,,3.9375,,0.004761904761904762,0.0279
1992-10-07 23:00:00,3.984375,,3.984375,,3.984375,,0.0031372549019607846,0.028900000000000002
1992-10-08 23:00:00,4.0,,4.0,,4.0,,0.004687500000000001,0.0285
1992-10-09 23:00:00,3.9375,,3.9375,,3.9375,,0.004761904761904762,0.028900000000000002
1992-10-12 23:00:00,3.953125,,3.953125,,3.953125,,0.0047430830039525695,0.028900000000000002
1992-10-13 23:00:00,3.9375,,3.9375,,3.9375,,0.004761904761904762,0.029500000000000002
1992-10-14 23:00:00,3.9375,,3.9375,,3.9375,,0.004761904761904762,0.029900000000000003
1992-10-15 23:00:00,3.90625,,3.90625,,3.90625,,0.0048000000000000004,0.0298
1992-10-16 23:00:00,4.0625,,4.0625,,4.0625,,0.004615384615384616,0.0297
1992-10-19 23:00:00,4.28125,,4.28125,,4.28125,,0.004379562043795621,0.0304
1992-10-20 23:00:00,4.21875,,4.21875,,4.21875,,0.004444444444444445,0.030899999999999997
1992-10-21 23:00:00,4.15625,,4.15625,,4.15625,,0.004511278195488722,0.029900000000000003
1992-10-22 23:00:00,3.953125,,3.953125,,3.953125,,0.0047430830039525695,0.0298
1992-10-23 23:00:00,3.953125,,3.953125,,3.953125,,0.0047430830039525695,0.03
1992-10-26 23:00:00,4.0,,4.0,,4.0,,0.004687500000000001,0.0302
1992-10-27 23:00:00,3.859375,,3.859375,,3.859375,,0.0048582995951417015,0.03
1992-10-28 23:00:00,3.828125,,3.828125,,3.828125,,0.00489795918367347,0.03
1992-10-29 23:00:00,3.84375,,3.84375,,3.84375,,0.004878048780487806,0.0302
1992-10-30 23:00:00,3.8125,,3.8125,,3.8125,,0.004918032786885246,0.030299999999999997
1992-11-02 23:00:00,3.875,,3.875,,3.875,,0.004838709677419356,0.0308
1992-11-03 23:00:00,3.75,,3.75,,3.75,,0.005000000000000001,0.031
1992-11-04 23:00:00,3.65625,,3.65625,,3.65625,,0.005128205128205129,0.030899999999999997
1992-11-05 23:00:00,3.484375,,3.484375,,3.484375,,0.005381165919282512,0.0308
1992-11-06 23:00:00,3.65625,,3.65625,,3.65625,,0.005128205128205129,0.0313
1992-11-09 23:00:00,3.546875,,3.546875,,3.546875,,0.005286343612334802,0.0317
1992-11-10 23:00:00,3.625,,3.625,,3.625,,0.005172413793103449,0.0315
1992-11-11 23:00:00,3.5625,,3.5625,,3.5625,,0.005263157894736843,0.0315
1992-11-12 23:00:00,3.578125,,3.578125,,3.578125,,0.005240174672489084,0.0313
1992-11-13 23:00:00,3.625,,3.625,,3.625,,0.005172413793103449,0.0315
1992-11-16 23:00:00,3.65625,,3.65625,,3.65625,,0.005128205128205129,0.0322
1992-11-17 23:00:00,3.625,,3.625,,3.625,,0.005172413793103449,0.032400000000000005
1992-11-18 23:00:00,3.640625,,3.640625,,3.640625,,0.005150214592274679,0.0322
1992-11-19 23:00:00,3.5,,3.5,,3.5,,0.005357142857142858,0.0322
1992-11-20 23:00:00,3.59375,,3.59375,,3.59375,,0.0052173913043478265,0.032799999999999996
1992-11-23 23:00:00,3.625,,3.625,,3.625,,0.005172413793103449,0.0334
1992-11-24 23:00:00,3.59375,,3.59375,,3.59375,,0.0052173913043478265,0.0329
1992-11-25 23:00:00,3.59375,,3.59375,,3.59375,,0.0052173913043478265,0.0331
1992-11-27 23:00:00,3.625,,3.625,,3.625,,0.005172413793103449,0.0333
1992-11-30 23:00:00,3.546875,,3.546875,,3.546875,,0.005286343612334802,0.0338
1992-12-01 23:00:00,3.53125,,3.53125,,3.53125,,0.005309734513274337,0.034
1992-12-02 23:00:00,3.578125,,3.578125,,3.578125,,0.005240174672489084,0.0342
1992-12-03 23:00:00,3.4375,,3.4375,,3.4375,,0.005454545454545455,0.0337
1992-12-04 23:00:00,3.5,,3.5,,3.5,,0.005357142857142858,0.0332
1992-12-07 23:00:00,3.5,,3.5,,3.5,,0.005357142857142858,0.0335
1992-12-08 23:00:00,3.484375,,3.484375,,3.484375,,0.005381165919282512,0.0333
1992-12-09 23:00:00,3.53125,,3.53125,,3.53125,,0.005309734513274337,0.033
1992-12-10 23:00:00,3.609375,,3.609375,,3.609375,,0.005194805194805196,0.0329
1992-12-11 23:00:00,3.671875,,3.671875,,3.671875,,0.005106382978723405,0.0332
1992-12-14 23:00:00,3.65625,,3.65625,,3.65625,,0.005128205128205129,0.0333
1992-12-15 23:00:00,3.625,,3.625,,3.625,,0.005172413793103449,0.0329
1992-12-16 23:00:00,3.59375,,3.59375,,3.59375,,0.0052173913043478265,0.032799999999999996
1992-12-17 23:00:00,3.5625,,3.5625,,3.5625,,0.005263157894736843,0.0327
1992-12-18 23:00:00,3.59375,,3.59375,,3.59375,,0.0052173913043478265,0.0323
1992-12-21 23:00:00,3.546875,,3.546875,,3.546875,,0.005286343612334802,0.0325
1992-12-22 23:00:00,3.546875,,3.546875,,3.546875,,0.005286343612334802,0.0327
1992-12-23 23:00:00,3.515625,,3.515625,,3.515625,,0.005333333333333334,0.0325
1992-12-24 23:00:00,3.59375,,3.59375,,3.59375,,0.0052173913043478265,0.0323
1992-12-28 23:00:00,3.546875,,3.546875,,3.546875,,0.005286343612334802,0.033
1992-12-29 23:00:00,3.5625,,3.5625,,3.5625,,0.005263157894736843,0.0327
1992-12-30 23:00:00,3.546875,,3.546875,,3.546875,,0.005286343612334802,0.0319
1992-12-31 23:00:00,3.671875,,3.671875,,3.671875,,0.005106382978723405,0.0315
1993-01-04 23:00:00,3.609375,,3.609375,,3.609375,,0.005194805194805196,0.0319
1993-01-05 23:00:00,3.6875,,3.6875,,3.6875,,0.005084745762711865,0.0318
1993-01-06 23:00:00,3.609375,,3.609375,,3.609375,,0.005194805194805196,0.0317
1993-01-07 23:00:00,3.578125,,3.578125,,3.578125,,0.005240174672489084,0.0319
1993-01-08 23:00:00,3.46875,,3.46875,,3.46875,,0.005405405405405407,0.0313
1993-01-11 23:00:00,3.390625,,3.390625,,3.390625,,0.007741935483870969,0.031200000000000002
1993-01-12 23:00:00,3.40625,,3.40625,,3.40625,,0.007706422018348625,0.030899999999999997
1993-01-13 23:00:00,3.46875,,3.46875,,3.46875,,0.007567567567567568,0.030600000000000002
1993-01-14 23:00:00,3.34375,,3.34375,,3.34375,,0.007850467289719627,0.0304
1993-01-15 23:00:00,3.390625,,3.390625,,3.390625,,0.007741935483870969,0.03
1993-01-18 23:00:00,3.375,,3.375,,3.375,,0.007777777777777778,0.03
1993-01-19 23:00:00,3.453125,,3.453125,,3.453125,,0.007601809954751132,0.031
1993-01-20 23:00:00,3.46875,,3.46875,,3.46875,,0.007567567567567568,0.0308
1993-01-21 23:00:00,3.5,,3.5,,3.5,,0.007500000000000001,0.0305
1993-01-22 23:00:00,3.59375,,3.59375,,3.59375,,0.007304347826086958,0.030299999999999997
1993-01-25 23:00:00,3.6875,,3.6875,,3.6875,,0.007118644067796611,0.0302
1993-01-26 23:00:00,3.78125,,3.78125,,3.78125,,0.006942148760330579,0.0301
1993-01-27 23:00:00,3.75,,3.75,,3.75,,0.007000000000000001,0.0297
1993-01-28 23:00:00,3.90625,,3.90625,,3.90625,,0.00672,0.0296
1993-01-29 23:00:00,3.96875,,3.96875,,3.96875,,0.006614173228346457,0.0296
1993-02-01 23:00:00,4.0625,,4.0625,,4.0625,,0.006461538461538462,0.0301
1993-02-02 23:00:00,4.09375,,4.09375,,4.09375,,0.006412213740458016,0.0302
1993-02-03 23:00:00,4.296875,,4.296875,,4.296875,,0.0061090909090909095,0.029900000000000003
1993-02-04 23:00:00,4.4375,,4.4375,,4.4375,,0.00591549295774648,0.0296
1993-02-05 23:00:00,4.5,,4.5,,4.5,,0.005833333333333334,0.0296
1993-02-08 23:00:00,4.5,,4.5,,4.5,,0.005833333333333334,0.03
1993-02-09 23:00:00,4.421875,,4.421875,,4.421875,,0.005936395759717315,0.029900000000000003
1993-02-10 23:00:00,4.375,,4.375,,4.375,,0.006000000000000001,0.03
1993-02-11 23:00:00,4.484375,,4.484375,,4.484375,,0.005853658536585367,0.0298
1993-02-12 23:00:00,4.484375,,4.484375,,4.484375,,0.005853658536585367,0.029900000000000003
1993-02-16 23:00:00,4.34375,,4.34375,,4.34375,,0.0060431654676258995,0.03
1993-02-17 23:00:00,4.390625,,4.390625,,4.390625,,0.005978647686832741,0.0297
1993-02-18 23:00:00,4.4375,,4.4375,,4.4375,,0.00591549295774648,0.029500000000000002
1993-02-19 23:00:00,4.5,,4.5,,4.5,,0.005833333333333334,0.029900000000000003
1993-02-22 23:00:00,4.5625,,4.5625,,4.5625,,0.005753424657534247,0.0301
1993-02-23 23:00:00,4.546875,,4.546875,,4.546875,,0.005773195876288661,0.03
1993-02-24 23:00:00,4.484375,,4.484375,,4.484375,,0.005853658536585367,0.0302
1993-02-25 23:00:00,4.359375,,4.359375,,4.359375,,0.006021505376344087,0.0301
1993-02-26 23:00:00,4.40625,,4.40625,,4.40625,,0.005957446808510639,0.0301
1993-03-01 23:00:00,4.4375,,4.4375,,4.4375,,0.00591549295774648,0.030299999999999997
1993-03-02 23:00:00,4.453125,,4.453125,,4.453125,,0.005894736842105263,0.030299999999999997
1993-03-03 23:00:00,4.78125,,4.78125,,4.78125,,0.005490196078431373,0.03
1993-03-04 23:00:00,4.734375,,4.734375,,4.734375,,0.005544554455445545,0.0297
1993-03-05 23:00:00,4.6875,,4.6875,,4.6875,,0.005600000000000001,0.030699999999999998
1993-03-08 23:00:00,4.78125,,4.78125,,4.78125,,0.005490196078431373,0.0305
1993-03-09 23:00:00,4.78125,,4.78125,,4.78125,,0.005490196078431373,0.0305
1993-03-10 23:00:00,4.8125,,4.8125,,4.8125,,0.005454545454545455,0.0304
1993-03-11 23:00:00,4.890625,,4.890625,,4.890625,,0.0053674121405750804,0.030299999999999997
1993-03-12 23:00:00,4.84375,,4.84375,,4.84375,,0.005419354838709678,0.0304
1993-03-15 23:00:00,4.875,,4.875,,4.875,,0.005384615384615385,0.030600000000000002
1993-03-16 23:00:00,4.859375,,4.859375,,4.859375,,0.005401929260450161,0.0304
1993-03-17 23:00:00,4.984375,,4.984375,,4.984375,,0.005266457680250784,0.0304
1993-03-18 23:00:00,5.0,,5.0,,5.0,,0.00525,0.0301
1993-03-19 23:00:00,4.96875,,4.96875,,4.96875,,0.005283018867924529,0.030299999999999997
1993-03-22 23:00:00,4.984375,,4.984375,,4.984375,,0.005266457680250784,0.029900000000000003
1993-03-23 23:00:00,4.96875,,4.96875,,4.96875,,0.005283018867924529,0.0298
1993-03-24 23:00:00,4.96875,,4.96875,,4.96875,,0.005283018867924529,0.0298
1993-03-25 23:00:00,4.84375,,4.84375,,4.84375,,0.005419354838709678,0.0297
1993-03-26 23:00:00,4.90625,,4.90625,,4.90625,,0.00535031847133758,0.03
1993-03-29 23:00:00,4.984375,,4.984375,,4.984375,,0.005266457680250784,0.03
1993-03-30 23:00:00,5.03125,,5.03125,,5.03125,,0.0052173913043478265,0.0297
1993-03-31 23:00:00,5.015625,,5.015625,,5.015625,,0.005233644859813084,0.029500000000000002
1993-04-01 23:00:00,5.0,,5.0,,5.0,,0.00525,0.0296
1993-04-02 23:00:00,4.890625,,4.890625,,4.890625,,0.0053674121405750804,0.0297
1993-04-05 23:00:00,4.90625,,4.90625,,4.90625,,0.00535031847133758,0.0297
1993-04-06 23:00:00,4.875,,4.875,,4.875,,0.005384615384615385,0.0298
1993-04-07 23:00:00,4.875,,4.875,,4.875,,0.005384615384615385,0.0298
1993-04-08 23:00:00,4.875,,4.875,,4.875,,0.006923076923076923,0.0296
1993-04-12 23:00:00,4.96875,,4.96875,,4.96875,,0.0055345911949685545,0.0294
1993-04-13 23:00:00,4.875,,4.875,,4.875,,0.0056410256410256415,0.0291
1993-04-14 23:00:00,4.84375,,4.84375,,4.84375,,0.00567741935483871,0.0288
1993-04-15 23:00:00,4.8125,,4.8125,,4.8125,,0.005714285714285715,0.028999999999999998
1993-04-16 23:00:00,4.84375,,4.84375,,4.84375,,0.00567741935483871,0.028999999999999998
1993-04-19 23:00:00,4.875,,4.875,,4.875,,0.0056410256410256415,0.0287
1993-04-20 23:00:00,4.984375,,4.984375,,4.984375,,0.005517241379310345,0.0285
1993-04-21 23:00:00,4.875,,4.875,,4.875,,0.0056410256410256415,0.0286
1993-04-22 23:00:00,4.671875,,4.671875,,4.671875,,0.005886287625418061,0.0288
1993-04-23 23:00:00,4.5,,4.5,,4.5,,0.006111111111111112,0.028999999999999998
1993-04-26 23:00:00,4.625,,4.625,,4.625,,0.005945945945945947,0.029500000000000002
1993-04-27 23:00:00,4.640625,,4.640625,,4.640625,,0.0059259259259259265,0.0297
1993-04-28 23:00:00,4.640625,,4.640625,,4.640625,,0.0059259259259259265,0.0298
1993-04-29 23:00:00,4.75,,4.75,,4.75,,0.0057894736842105275,0.0296
1993-04-30 23:00:00,4.921875,,4.921875,,4.921875,,0.005587301587301588,0.0297
1993-05-03 23:00:00,4.953125,,4.953125,,4.953125,,0.005552050473186121,0.029300000000000003
1993-05-04 23:00:00,4.921875,,4.921875,,4.921875,,0.005587301587301588,0.029300000000000003
1993-05-05 23:00:00,4.921875,,4.921875,,4.921875,,0.005587301587301588,0.029500000000000002
1993-05-06 23:00:00,4.9375,,4.9375,,4.9375,,0.005569620253164558,0.0292
1993-05-07 23:00:00,4.921875,,4.921875,,4.921875,,0.005587301587301588,0.029300000000000003
1993-05-10 23:00:00,4.8125,,4.8125,,4.8125,,0.005714285714285715,0.029500000000000002
1993-05-11 23:00:00,4.9375,,4.9375,,4.9375,,0.005569620253164558,0.029500000000000002
1993-05-12 23:00:00,4.953125,,4.953125,,4.953125,,0.005552050473186121,0.0296
1993-05-13 23:00:00,5.0625,,5.0625,,5.0625,,0.0054320987654320994,0.029900000000000003
1993-05-14 23:00:00,5.171875,,5.171875,,5.171875,,0.005317220543806647,0.030299999999999997
1993-05-17 23:00:00,5.203125,,5.203125,,5.203125,,0.005285285285285286,0.0308
1993-05-18 23:00:00,5.296875,,5.296875,,5.296875,,0.0051917404129793515,0.0308
1993-05-19 23:00:00,5.234375,,5.234375,,5.234375,,0.005253731343283583,0.030299999999999997
1993-05-20 23:00:00,5.234375,,5.234375,,5.234375,,0.005253731343283583,0.030299999999999997
1993-05-21 23:00:00,5.21875,,5.21875,,5.21875,,0.005269461077844312,0.030699999999999998
1993-05-24 23:00:00,5.234375,,5.234375,,5.234375,,0.005253731343283583,0.0315
1993-05-25 23:00:00,5.1875,,5.1875,,5.1875,,0.005301204819277109,0.031400000000000004
1993-05-26 23:00:00,5.203125,,5.203125,,5.203125,,0.005285285285285286,0.031200000000000002
1993-05-27 23:00:00,5.3125,,5.3125,,5.3125,,0.0051764705882352945,0.0313
1993-05-28 23:00:00,5.3125,,5.3125,,5.3125,,0.0051764705882352945,0.0313
1993-06-01 23:00:00,5.40625,,5.40625,,5.40625,,0.00508670520231214,0.031400000000000004
1993-06-02 23:00:00,5.5625,,5.5625,,5.5625,,0.004943820224719102,0.031400000000000004
1993-06-03 23:00:00,5.515625,,5.515625,,5.515625,,0.004985835694050992,0.031
1993-06-04 23:00:00,5.5,,5.5,,5.5,,0.005000000000000001,0.0318
1993-06-07 23:00:00,5.5,,5.5,,5.5,,0.005000000000000001,0.032
1993-06-08 23:00:00,5.4375,,5.4375,,5.4375,,0.005057471264367817,0.032
1993-06-09 23:00:00,5.5,,5.5,,5.5,,0.005000000000000001,0.0318
1993-06-10 23:00:00,5.4375,,5.4375,,5.4375,,0.005057471264367817,0.0318
1993-06-11 23:00:00,5.234375,,5.234375,,5.234375,,0.005253731343283583,0.031200000000000002
1993-06-14 23:00:00,5.125,,5.125,,5.125,,0.005365853658536586,0.0313
1993-06-15 23:00:00,5.125,,5.125,,5.125,,0.005365853658536586,0.031200000000000002
1993-06-16 23:00:00,5.203125,,5.203125,,5.203125,,0.005285285285285286,0.0311
1993-06-17 23:00:00,5.25,,5.25,,5.25,,0.005238095238095239,0.031
1993-06-18 23:00:00,5.265625,,5.265625,,5.265625,,0.005222551928783383,0.0313
1993-06-21 23:00:00,5.34375,,5.34375,,5.34375,,0.005146198830409357,0.0317
1993-06-22 23:00:00,5.265625,,5.265625,,5.265625,,0.005222551928783383,0.0316
1993-06-23 23:00:00,5.296875,,5.296875,,5.296875,,0.0051917404129793515,0.0319
1993-06-24 23:00:00,5.125,,5.125,,5.125,,0.005365853658536586,0.0317
1993-06-25 23:00:00,5.125,,5.125,,5.125,,0.005365853658536586,0.0315
1993-06-28 23:00:00,5.140625,,5.140625,,5.140625,,0.005349544072948329,0.0311
1993-06-29 23:00:00,5.046875,,5.046875,,5.046875,,0.0054489164086687315,0.031
1993-06-30 23:00:00,5.09375,,5.09375,,5.09375,,0.00539877300613497,0.031
1993-07-01 23:00:00,5.046875,,5.046875,,5.046875,,0.0054489164086687315,0.030600000000000002
1993-07-02 23:00:00,5.046875,,5.046875,,5.046875,,0.0054489164086687315,0.0302
1993-07-06 23:00:00,5.0,,5.0,,5.0,,0.0055000000000000005,0.031200000000000002
1993-07-07 23:00:00,5.078125,,5.078125,,5.078125,,0.005415384615384616,0.0311
1993-07-08 23:00:00,5.1875,,5.1875,,5.1875,,0.005301204819277109,0.030899999999999997
1993-07-09 23:00:00,5.25,,5.25,,5.25,,0.005476190476190476,0.030899999999999997
1993-07-12 23:00:00,5.3125,,5.3125,,5.3125,,0.005411764705882353,0.031
1993-07-13 23:00:00,5.28125,,5.28125,,5.28125,,0.00544378698224852,0.0311
1993-07-14 23:00:00,5.28125,,5.28125,,5.28125,,0.00544378698224852,0.0308
1993-07-15 23:00:00,5.25,,5.25,,5.25,,0.005476190476190476,0.0308
1993-07-16 23:00:00,5.25,,5.25,,5.25,,0.005476190476190476,0.0308
1993-07-19 23:00:00,5.28125,,5.28125,,5.28125,,0.00544378698224852,0.031200000000000002
1993-07-20 23:00:00,5.3125,,5.3125,,5.3125,,0.005411764705882353,0.0313
1993-07-21 23:00:00,5.3125,,5.3125,,5.3125,,0.005411764705882353,0.031400000000000004
1993-07-22 23:00:00,5.296875,,5.296875,,5.296875,,0.005427728613569321,0.0316
1993-07-23 23:00:00,5.3125,,5.3125,,5.3125,,0.005411764705882353,0.0316
1993-07-26 23:00:00,5.296875,,5.296875,,5.296875,,0.005427728613569321,0.0317
1993-07-27 23:00:00,5.25,,5.25,,5.25,,0.005476190476190476,0.0317
1993-07-28 23:00:00,5.265625,,5.265625,,5.265625,,0.005459940652818991,0.0315
1993-07-29 23:00:00,5.296875,,5.296875,,5.296875,,0.005427728613569321,0.030899999999999997
1993-07-30 23:00:00,5.328125,,5.328125,,5.328125,,0.005395894428152493,0.031
1993-08-02 23:00:00,5.46875,,5.46875,,5.46875,,0.005257142857142857,0.0317
1993-08-03 23:00:00,5.5625,,5.5625,,5.5625,,0.005168539325842696,0.0315
1993-08-04 23:00:00,5.625,,5.625,,5.625,,0.0051111111111111105,0.0315
1993-08-05 23:00:00,5.625,,5.625,,5.625,,0.0051111111111111105,0.031200000000000002
1993-08-06 23:00:00,5.59375,,5.59375,,5.59375,,0.005139664804469274,0.0311
1993-08-09 23:00:00,5.6875,,5.6875,,5.6875,,0.0050549450549450545,0.0311
1993-08-10 23:00:00,5.75,,5.75,,5.75,,0.004999999999999999,0.031
1993-08-11 23:00:00,6.0,,6.0,,6.0,,0.004791666666666666,0.030899999999999997
1993-08-12 23:00:00,6.015625,,6.015625,,6.015625,,0.004779220779220779,0.0308
1993-08-13 23:00:00,5.9375,,5.9375,,5.9375,,0.004842105263157894,0.030899999999999997
1993-08-16 23:00:00,5.984375,,5.984375,,5.984375,,0.0048041775456919055,0.031
1993-08-17 23:00:00,6.25,,6.25,,6.25,,0.0046,0.0308
1993-08-18 23:00:00,6.421875,,6.421875,,6.421875,,0.004476885644768856,0.0305
1993-08-19 23:00:00,6.3125,,6.3125,,6.3125,,0.004554455445544554,0.0305
1993-08-20 23:00:00,6.453125,,6.453125,,6.453125,,0.004455205811138014,0.030600000000000002
1993-08-23 23:00:00,6.703125,,6.703125,,6.703125,,0.004289044289044289,0.0308
1993-08-24 23:00:00,6.5625,,6.5625,,6.5625,,0.00438095238095238,0.0305
1993-08-25 23:00:00,6.453125,,6.453125,,6.453125,,0.004455205811138014,0.0304
1993-08-26 23:00:00,6.296875,,6.296875,,6.296875,,0.00456575682382134,0.030600000000000002
1993-08-27 23:00:00,6.125,,6.125,,6.125,,0.004693877551020408,0.030899999999999997
1993-08-30 23:00:00,6.21875,,6.21875,,6.21875,,0.004623115577889447,0.0308
1993-08-31 23:00:00,6.28125,,6.28125,,6.28125,,0.004577114427860696,0.0308
1993-09-01 23:00:00,6.375,,6.375,,6.375,,0.004509803921568627,0.0308
1993-09-02 23:00:00,6.28125,,6.28125,,6.28125,,0.004577114427860696,0.0305
1993-09-03 23:00:00,6.296875,,6.296875,,6.296875,,0.00456575682382134,0.03
1993-09-07 23:00:00,6.125,,6.125,,6.125,,0.004693877551020408,0.0301
1993-09-08 23:00:00,5.953125,,5.953125,,5.953125,,0.004829396325459317,0.0302
1993-09-09 23:00:00,5.96875,,5.96875,,5.96875,,0.0048167539267015705,0.0304
1993-09-10 23:00:00,5.984375,,5.984375,,5.984375,,0.0048041775456919055,0.0302
1993-09-13 23:00:00,5.921875,,5.921875,,5.921875,,0.0048548812664907645,0.0304
1993-09-14 23:00:00,5.9375,,5.9375,,5.9375,,0.004842105263157894,0.0305
1993-09-15 23:00:00,6.0,,6.0,,6.0,,0.004791666666666666,0.0302
1993-09-16 23:00:00,6.0,,6.0,,6.0,,0.004791666666666666,0.0301
1993-09-17 23:00:00,5.9375,,5.9375,,5.9375,,0.004842105263157894,0.0301
1993-09-20 23:00:00,5.96875,,5.96875,,5.96875,,0.0048167539267015705,0.03
1993-09-21 23:00:00,6.015625,,6.015625,,6.015625,,0.004779220779220779,0.0298
1993-09-22 23:00:00,5.96875,,5.96875,,5.96875,,0.0048167539267015705,0.0298
1993-09-23 23:00:00,5.984375,,5.984375,,5.984375,,0.0048041775456919055,0.029900000000000003
1993-09-24 23:00:00,5.96875,,5.96875,,5.96875,,0.0048167539267015705,0.029900000000000003
1993-09-27 23:00:00,5.984375,,5.984375,,5.984375,,0.0048041775456919055,0.0296
1993-09-28 23:00:00,5.9375,,5.9375,,5.9375,,0.004842105263157894,0.0296
1993-09-29 23:00:00,6.453125,,6.453125,,6.453125,,0.004455205811138014,0.029900000000000003
1993-09-30 23:00:00,6.625,,6.625,,6.625,,0.004339622641509434,0.0298
1993-10-01 23:00:00,6.71875,,6.71875,,6.71875,,0.00427906976744186,0.0298
1993-10-04 23:00:00,6.640625,,6.640625,,6.640625,,0.004329411764705882,0.0302
1993-10-05 23:00:00,6.578125,,6.578125,,6.578125,,0.0043705463182897855,0.030600000000000002
1993-10-06 23:00:00,6.53125,,6.53125,,6.53125,,0.004401913875598086,0.0304
1993-10-07 23:00:00,6.484375,,6.484375,,6.484375,,0.004433734939759036,0.0305
1993-10-08 23:00:00,6.421875,,6.421875,,6.421875,,0.004671532846715328,0.0305
1993-10-11 23:00:00,6.25,,6.25,,6.25,,0.0048,0.0305
1993-10-12 23:00:00,6.125,,6.125,,6.125,,0.004897959183673469,0.031200000000000002
1993-10-13 23:00:00,5.984375,,5.984375,,5.984375,,0.0050130548302872065,0.031
1993-10-14 23:00:00,6.03125,,6.03125,,6.03125,,0.004974093264248704,0.0308
1993-10-15 23:00:00,5.875,,5.875,,5.875,,0.005106382978723404,0.0308
1993-10-18 23:00:00,5.75,,5.75,,5.75,,0.005217391304347826,0.0313
1993-10-19 23:00:00,5.828125,,5.828125,,5.828125,,0.00514745308310992,0.0313
1993-10-20 23:00:00,5.3125,,5.3125,,5.3125,,0.005647058823529411,0.0311
1993-10-21 23:00:00,5.5,,5.5,,5.5,,0.005454545454545454,0.031200000000000002
1993-10-22 23:00:00,5.375,,5.375,,5.375,,0.005581395348837209,0.0311
1993-10-25 23:00:00,5.28125,,5.28125,,5.28125,,0.005680473372781065,0.031400000000000004
1993-10-26 23:00:00,5.03125,,5.03125,,5.03125,,0.005962732919254658,0.0316
1993-10-27 23:00:00,5.1875,,5.1875,,5.1875,,0.005783132530120482,0.0315
1993-10-28 23:00:00,5.453125,,5.453125,,5.453125,,0.005501432664756447,0.0311
1993-10-29 23:00:00,5.34375,,5.34375,,5.34375,,0.005614035087719298,0.031
1993-11-01 23:00:00,5.453125,,5.453125,,5.453125,,0.005501432664756447,0.0318
1993-11-02 23:00:00,5.5625,,5.5625,,5.5625,,0.005393258426966292,0.0319
1993-11-03 23:00:00,5.625,,5.625,,5.625,,0.005333333333333333,0.0316
1993-11-04 23:00:00,5.625,,5.625,,5.625,,0.005333333333333333,0.0315
1993-11-05 23:00:00,5.5625,,5.5625,,5.5625,,0.005393258426966292,0.0313
1993-11-08 23:00:00,5.46875,,5.46875,,5.46875,,0.005485714285714286,0.0317
1993-11-09 23:00:00,5.21875,,5.21875,,5.21875,,0.005748502994011976,0.0318
1993-11-10 23:00:00,5.265625,,5.265625,,5.265625,,0.005697329376854599,0.0319
1993-11-11 23:00:00,5.21875,,5.21875,,5.21875,,0.005748502994011976,0.0319
1993-11-12 23:00:00,5.203125,,5.203125,,5.203125,,0.005765765765765766,0.0318
1993-11-15 23:00:00,5.140625,,5.140625,,5.140625,,0.005835866261398176,0.0318
1993-11-16 23:00:00,4.9375,,4.9375,,4.9375,,0.0060759493670886075,0.0316
1993-11-17 23:00:00,5.203125,,5.203125,,5.203125,,0.005765765765765766,0.0316
1993-11-18 23:00:00,5.296875,,5.296875,,5.296875,,0.005663716814159292,0.0318
1993-11-19 23:00:00,5.265625,,5.265625,,5.265625,,0.005697329376854599,0.032
1993-11-22 23:00:00,5.078125,,5.078125,,5.078125,,0.005907692307692307,0.0321
1993-11-23 23:00:00,5.09375,,5.09375,,5.09375,,0.005889570552147239,0.0319
1993-11-24 23:00:00,5.15625,,5.15625,,5.15625,,0.005818181818181818,0.0319
1993-11-26 23:00:00,5.03125,,5.03125,,5.03125,,0.005962732919254658,0.0318
1993-11-29 23:00:00,4.828125,,4.828125,,4.828125,,0.006213592233009708,0.032
1993-11-30 23:00:00,4.828125,,4.828125,,4.828125,,0.006213592233009708,0.0321
1993-12-01 23:00:00,4.859375,,4.859375,,4.859375,,0.006173633440514469,0.0319
1993-12-02 23:00:00,4.859375,,4.859375,,4.859375,,0.006173633440514469,0.0318
1993-12-03 23:00:00,4.875,,4.875,,4.875,,0.006153846153846154,0.0318
1993-12-06 23:00:00,4.890625,,4.890625,,4.890625,,0.006134185303514377,0.0318
1993-12-07 23:00:00,4.90625,,4.90625,,4.90625,,0.006114649681528662,0.0316
1993-12-08 23:00:00,4.859375,,4.859375,,4.859375,,0.006173633440514469,0.0315
1993-12-09 23:00:00,4.78125,,4.78125,,4.78125,,0.006274509803921568,0.0313
1993-12-10 23:00:00,4.828125,,4.828125,,4.828125,,0.006213592233009708,0.031200000000000002
1993-12-13 23:00:00,4.765625,,4.765625,,4.765625,,0.006295081967213114,0.031200000000000002
1993-12-14 23:00:00,4.8125,,4.8125,,4.8125,,0.006233766233766234,0.0311
1993-12-15 23:00:00,4.734375,,4.734375,,4.734375,,0.006336633663366336,0.031
1993-12-16 23:00:00,4.78125,,4.78125,,4.78125,,0.006274509803921568,0.031
1993-12-17 23:00:00,4.75,,4.75,,4.75,,0.00631578947368421,0.030899999999999997
1993-12-20 23:00:00,4.515625,,4.515625,,4.515625,,0.006643598615916955,0.0315
1993-12-21 23:00:00,4.4375,,4.4375,,4.4375,,0.00676056338028169,0.031400000000000004
1993-12-22 23:00:00,4.734375,,4.734375,,4.734375,,0.006336633663366336,0.0313
1993-12-23 23:00:00,4.75,,4.75,,4.75,,0.00631578947368421,0.0313
1993-12-27 23:00:00,4.859375,,4.859375,,4.859375,,0.006173633440514469,0.0313
1993-12-28 23:00:00,4.8125,,4.8125,,4.8125,,0.006233766233766234,0.0313
1993-12-29 23:00:00,4.859375,,4.859375,,4.859375,,0.006173633440514469,0.0308
1993-12-30 23:00:00,4.859375,,4.859375,,4.859375,,0.006173633440514469,0.0304
1993-12-31 23:00:00,4.875,,4.875,,4.875,,0.006153846153846154,0.030699999999999998
1994-01-03 23:00:00,4.875,,4.875,,4.875,,0.006153846153846154,0.0316
1994-01-04 23:00:00,4.890625,,4.890625,,4.890625,,0.006134185303514377,0.0315
1994-01-05 23:00:00,5.203125,,5.203125,,5.203125,,0.005765765765765766,0.031400000000000004
1994-01-06 23:00:00,5.453125,,5.453125,,5.453125,,0.005501432664756447,0.031200000000000002
1994-01-07 23:00:00,5.4375,,5.4375,,5.4375,,0.005517241379310344,0.030699999999999998
1994-01-10 23:00:00,5.640625,,5.640625,,5.640625,,0.006648199445983379,0.030600000000000002
1994-01-11 23:00:00,5.5,,5.5,,5.5,,0.005454545454545454,0.0304
1994-01-12 23:00:00,5.40625,,5.40625,,5.40625,,0.0055491329479768784,0.0302
1994-01-13 23:00:00,5.3125,,5.3125,,5.3125,,0.005647058823529411,0.0301
1994-01-14 23:00:00,5.15625,,5.15625,,5.15625,,0.005818181818181818,0.030299999999999997
1994-01-17 23:00:00,5.296875,,5.296875,,5.296875,,0.005663716814159292,0.030299999999999997
1994-01-18 23:00:00,5.4375,,5.4375,,5.4375,,0.005517241379310344,0.0304
1994-01-19 23:00:00,5.515625,,5.515625,,5.515625,,0.005439093484419263,0.030299999999999997
1994-01-20 23:00:00,5.359375,,5.359375,,5.359375,,0.005597667638483965,0.0301
1994-01-21 23:00:00,5.375,,5.375,,5.375,,0.005581395348837209,0.0301
1994-01-24 23:00:00,5.3125,,5.3125,,5.3125,,0.005647058823529411,0.0301
1994-01-25 23:00:00,5.3125,,5.3125,,5.3125,,0.005647058823529411,0.029900000000000003
1994-01-26 23:00:00,5.375,,5.375,,5.375,,0.005581395348837209,0.0298
1994-01-27 23:00:00,5.546875,,5.546875,,5.546875,,0.005408450704225352,0.0298
1994-01-28 23:00:00,5.5,,5.5,,5.5,,0.005454545454545454,0.029900000000000003
1994-01-31 23:00:00,5.515625,,5.515625,,5.515625,,0.005439093484419263,0.0305
1994-02-01 23:00:00,5.609375,,5.609375,,5.609375,,0.005348189415041783,0.031
1994-02-02 23:00:00,5.765625,,5.765625,,5.765625,,0.005203252032520325,0.0313
1994-02-03 23:00:00,5.75,,5.75,,5.75,,0.005217391304347826,0.032
1994-02-04 23:00:00,5.71875,,5.71875,,5.71875,,0.005245901639344262,0.033
1994-02-07 23:00:00,5.625,,5.625,,5.625,,0.005333333333333333,0.0331
1994-02-08 23:00:00,5.734375,,5.734375,,5.734375,,0.005231607629427793,0.0332
1994-02-09 23:00:00,5.65625,,5.65625,,5.65625,,0.005303867403314917,0.0332
1994-02-10 23:00:00,5.5,,5.5,,5.5,,0.005454545454545454,0.0333
1994-02-11 23:00:00,5.6875,,5.6875,,5.6875,,0.005274725274725275,0.0333
1994-02-14 23:00:00,5.5,,5.5,,5.5,,0.005454545454545454,0.0334
1994-02-15 23:00:00,5.5,,5.5,,5.5,,0.005454545454545454,0.0334
1994-02-16 23:00:00,5.375,,5.375,,5.375,,0.005581395348837209,0.0334
1994-02-17 23:00:00,5.34375,,5.34375,,5.34375,,0.005614035087719298,0.0335
1994-02-18 23:00:00,5.34375,,5.34375,,5.34375,,0.005614035087719298,0.0336
1994-02-22 23:00:00,5.375,,5.375,,5.375,,0.005581395348837209,0.034
1994-02-23 23:00:00,5.421875,,5.421875,,5.421875,,0.00553314121037464,0.0346
1994-02-24 23:00:00,5.4375,,5.4375,,5.4375,,0.005517241379310344,0.0344
1994-02-25 23:00:00,5.46875,,5.46875,,5.46875,,0.005485714285714286,0.0344
1994-02-28 23:00:00,5.375,,5.375,,5.375,,0.005581395348837209,0.0347
1994-03-01 23:00:00,5.375,,5.375,,5.375,,0.005581395348837209,0.0358
1994-03-02 23:00:00,5.3125,,5.3125,,5.3125,,0.005647058823529411,0.0355
1994-03-03 23:00:00,5.3125,,5.3125,,5.3125,,0.005647058823529411,0.0356
1994-03-04 23:00:00,5.390625,,5.390625,,5.390625,,0.005565217391304347,0.0362
1994-03-07 23:00:00,5.34375,,5.34375,,5.34375,,0.005614035087719298,0.0361
1994-03-08 23:00:00,5.234375,,5.234375,,5.234375,,0.005731343283582089,0.0363
1994-03-09 23:00:00,5.03125,,5.03125,,5.03125,,0.005962732919254658,0.0361
1994-03-10 23:00:00,4.9375,,4.9375,,4.9375,,0.0060759493670886075,0.035699999999999996
1994-03-11 23:00:00,5.015625,,5.015625,,5.015625,,0.005981308411214953,0.0358
1994-03-14 23:00:00,5.171875,,5.171875,,5.171875,,0.005800604229607251,0.0366
1994-03-15 23:00:00,5.28125,,5.28125,,5.28125,,0.005680473372781065,0.0366
1994-03-16 23:00:00,5.28125,,5.28125,,5.28125,,0.005680473372781065,0.0361
1994-03-17 23:00:00,5.484375,,5.484375,,5.484375,,0.00547008547008547,0.0355
1994-03-18 23:00:00,5.6875,,5.6875,,5.6875,,0.005274725274725275,0.035699999999999996
1994-03-21 23:00:00,5.71875,,5.71875,,5.71875,,0.005245901639344262,0.037000000000000005
1994-03-22 23:00:00,5.796875,,5.796875,,5.796875,,0.005175202156334231,0.036000000000000004
1994-03-23 23:00:00,5.671875,,5.671875,,5.671875,,0.005289256198347107,0.0354
1994-03-24 23:00:00,5.625,,5.625,,5.625,,0.005333333333333333,0.0353
1994-03-25 23:00:00,5.625,,5.625,,5.625,,0.005333333333333333,0.035699999999999996
1994-03-28 23:00:00,5.4375,,5.4375,,5.4375,,0.005517241379310344,0.035699999999999996
1994-03-29 23:00:00,5.25,,5.25,,5.25,,0.005714285714285714,0.0359
1994-03-30 23:00:00,5.3125,,5.3125,,5.3125,,0.005647058823529411,0.035699999999999996
1994-03-31 23:00:00,5.34375,,5.34375,,5.34375,,0.005614035087719298,0.0356
1994-04-04 23:00:00,5.265625,,5.265625,,5.265625,,0.005697329376854599,0.0382
1994-04-05 23:00:00,5.25,,5.25,,5.25,,0.005714285714285714,0.0375
1994-04-06 23:00:00,5.375,,5.375,,5.375,,0.005581395348837209,0.036699999999999997
1994-04-07 23:00:00,5.34375,,5.34375,,5.34375,,0.005614035087719298,0.0361
1994-04-08 23:00:00,5.34375,,5.34375,,5.34375,,0.004210526315789474,0.0365
1994-04-11 23:00:00,5.296875,,5.296875,,5.296875,,0.005663716814159292,0.0368
1994-04-12 23:00:00,5.375,,5.375,,5.375,,0.005581395348837209,0.0364
1994-04-13 23:00:00,5.4375,,5.4375,,5.4375,,0.005517241379310344,0.0364
1994-04-14 23:00:00,5.53125,,5.53125,,5.53125,,0.0054237288135593215,0.0366
1994-04-15 23:00:00,5.875,,5.875,,5.875,,0.005106382978723404,0.0368
1994-04-18 23:00:00,5.796875,,5.796875,,5.796875,,0.005175202156334231,0.0384
1994-04-19 23:00:00,5.734375,,5.734375,,5.734375,,0.005231607629427793,0.0383
1994-04-20 23:00:00,5.71875,,5.71875,,5.71875,,0.005245901639344262,0.0383
1994-04-21 23:00:00,5.75,,5.75,,5.75,,0.005217391304347826,0.0383
1994-04-22 23:00:00,5.765625,,5.765625,,5.765625,,0.005203252032520325,0.0384
1994-04-25 23:00:00,5.9375,,5.9375,,5.9375,,0.0050526315789473685,0.0394
1994-04-26 23:00:00,5.96875,,5.96875,,5.96875,,0.005026178010471204,0.0397
1994-04-28 23:00:00,5.953125,,5.953125,,5.953125,,0.005039370078740157,0.0398
1994-04-29 23:00:00,5.9375,,5.9375,,5.9375,,0.0050526315789473685,0.0397
1994-05-02 23:00:00,5.953125,,5.953125,,5.953125,,0.005039370078740157,0.040999999999999995
1994-05-03 23:00:00,5.875,,5.875,,5.875,,0.005106382978723404,0.0412
1994-05-04 23:00:00,5.9375,,5.9375,,5.9375,,0.0050526315789473685,0.0415
1994-05-05 23:00:00,5.921875,,5.921875,,5.921875,,0.005065963060686016,0.041299999999999996
1994-05-06 23:00:00,6.09375,,6.09375,,6.09375,,0.004923076923076923,0.043
1994-05-09 23:00:00,6.078125,,6.078125,,6.078125,,0.00493573264781491,0.0444
1994-05-10 23:00:00,6.09375,,6.09375,,6.09375,,0.004923076923076923,0.0435
1994-05-11 23:00:00,6.03125,,6.03125,,6.03125,,0.004974093264248704,0.0432
1994-05-12 23:00:00,6.140625,,6.140625,,6.140625,,0.004885496183206107,0.0424
1994-05-13 23:00:00,6.125,,6.125,,6.125,,0.004897959183673469,0.0424
1994-05-16 23:00:00,6.109375,,6.109375,,6.109375,,0.004910485933503836,0.0431
1994-05-17 23:00:00,5.953125,,5.953125,,5.953125,,0.005039370078740157,0.043
1994-05-18 23:00:00,5.96875,,5.96875,,5.96875,,0.005026178010471204,0.0429
1994-05-19 23:00:00,5.890625,,5.890625,,5.890625,,0.005092838196286472,0.0424
1994-05-20 23:00:00,5.828125,,5.828125,,5.828125,,0.00514745308310992,0.0426
1994-05-23 23:00:00,5.765625,,5.765625,,5.765625,,0.005203252032520325,0.0435
1994-05-24 23:00:00,5.703125,,5.703125,,5.703125,,0.00526027397260274,0.0432
1994-05-25 23:00:00,5.65625,,5.65625,,5.65625,,0.005303867403314917,0.042800000000000005
1994-05-26 23:00:00,5.546875,,5.546875,,5.546875,,0.005408450704225352,0.042699999999999995
1994-05-27 23:00:00,5.578125,,5.578125,,5.578125,,0.005378151260504202,0.043
1994-05-31 23:00:00,5.5,,5.5,,5.5,,0.005454545454545454,0.0431
1994-06-01 23:00:00,5.515625,,5.515625,,5.515625,,0.005439093484419263,0.042800000000000005
1994-06-02 23:00:00,5.46875,,5.46875,,5.46875,,0.005485714285714286,0.0424
1994-06-03 23:00:00,5.421875,,5.421875,,5.421875,,0.00553314121037464,0.042300000000000004
1994-06-06 23:00:00,5.46875,,5.46875,,5.46875,,0.005485714285714286,0.0425
1994-06-07 23:00:00,5.5625,,5.5625,,5.5625,,0.005393258426966292,0.042199999999999994
1994-06-08 23:00:00,5.46875,,5.46875,,5.46875,,0.005485714285714286,0.0421
1994-06-09 23:00:00,5.375,,5.375,,5.375,,0.005581395348837209,0.042300000000000004
1994-06-10 23:00:00,5.578125,,5.578125,,5.578125,,0.005378151260504202,0.042199999999999994
1994-06-13 23:00:00,5.6875,,5.6875,,5.6875,,0.005274725274725275,0.0424
1994-06-14 23:00:00,5.75,,5.75,,5.75,,0.005217391304347826,0.0421
1994-06-15 23:00:00,5.734375,,5.734375,,5.734375,,0.005231607629427793,0.042300000000000004
1994-06-16 23:00:00,5.78125,,5.78125,,5.78125,,0.005189189189189189,0.042199999999999994
1994-06-17 23:00:00,5.90625,,5.90625,,5.90625,,0.005079365079365079,0.042300000000000004
1994-06-20 23:00:00,5.84375,,5.84375,,5.84375,,0.0051336898395721925,0.042800000000000005
1994-06-21 23:00:00,5.90625,,5.90625,,5.90625,,0.005079365079365079,0.043
1994-06-22 23:00:00,5.90625,,5.90625,,5.90625,,0.005079365079365079,0.042800000000000005
1994-06-23 23:00:00,5.75,,5.75,,5.75,,0.005217391304347826,0.0426
1994-06-24 23:00:00,5.71875,,5.71875,,5.71875,,0.005245901639344262,0.042800000000000005
1994-06-27 23:00:00,5.71875,,5.71875,,5.71875,,0.005245901639344262,0.042800000000000005
1994-06-28 23:00:00,5.71875,,5.71875,,5.71875,,0.005245901639344262,0.042800000000000005
1994-06-29 23:00:00,5.75,,5.75,,5.75,,0.005217391304347826,0.0425
1994-06-30 23:00:00,5.75,,5.75,,5.75,,0.005217391304347826,0.0426
1994-07-01 23:00:00,5.65625,,5.65625,,5.65625,,0.005303867403314917,0.0432
1994-07-05 23:00:00,5.5,,5.5,,5.5,,0.005454545454545454,0.044199999999999996
1994-07-06 23:00:00,5.6875,,5.6875,,5.6875,,0.005274725274725275,0.043899999999999995
1994-07-07 23:00:00,5.59375,,5.59375,,5.59375,,0.005363128491620112,0.0436
1994-07-08 23:00:00,5.5,,5.5,,5.5,,0.005454545454545454,0.0449
1994-07-11 23:00:00,5.5625,,5.5625,,5.5625,,0.005393258426966292,0.0461
1994-07-12 23:00:00,5.5625,,5.5625,,5.5625,,0.005393258426966292,0.045599999999999995
1994-07-13 23:00:00,5.5,,5.5,,5.5,,0.005454545454545454,0.0452
1994-07-14 23:00:00,5.4375,,5.4375,,5.4375,,0.005517241379310344,0.0441
1994-07-15 23:00:00,5.375,,5.375,,5.375,,0.005581395348837209,0.0438
1994-07-18 23:00:00,5.46875,,5.46875,,5.46875,,0.005485714285714286,0.044000000000000004
1994-07-19 23:00:00,5.375,,5.375,,5.375,,0.005581395348837209,0.0437
1994-07-20 23:00:00,5.3125,,5.3125,,5.3125,,0.005647058823529411,0.0441
1994-07-21 23:00:00,5.34375,,5.34375,,5.34375,,0.005614035087719298,0.0444
1994-07-22 23:00:00,5.21875,,5.21875,,5.21875,,0.005748502994011976,0.045
1994-07-25 23:00:00,5.03125,,5.03125,,5.03125,,0.005962732919254658,0.0453
1994-07-26 23:00:00,4.96875,,4.96875,,4.96875,,0.0060377358490566035,0.0452
1994-07-27 23:00:00,4.9375,,4.9375,,4.9375,,0.0060759493670886075,0.045700000000000005
1994-07-28 23:00:00,5.0,,5.0,,5.0,,0.006,0.0454
1994-07-29 23:00:00,4.96875,,4.96875,,4.96875,,0.0060377358490566035,0.043899999999999995
1994-08-01 23:00:00,5.0,,5.0,,5.0,,0.006,0.044500000000000005
1994-08-02 23:00:00,5.0,,5.0,,5.0,,0.006,0.0444
1994-08-03 23:00:00,5.0,,5.0,,5.0,,0.006,0.0444
1994-08-04 23:00:00,5.0,,5.0,,5.0,,0.006,0.0443
1994-08-05 23:00:00,4.78125,,4.78125,,4.78125,,0.006274509803921568,0.045899999999999996
1994-08-08 23:00:00,4.84375,,4.84375,,4.84375,,0.006193548387096774,0.045899999999999996
1994-08-09 23:00:00,5.0,,5.0,,5.0,,0.006,0.045599999999999995
1994-08-10 23:00:00,5.0625,,5.0625,,5.0625,,0.005925925925925926,0.0449
1994-08-11 23:00:00,4.96875,,4.96875,,4.96875,,0.0060377358490566035,0.0446
1994-08-12 23:00:00,5.0,,5.0,,5.0,,0.006,0.0451
1994-08-15 23:00:00,4.96875,,4.96875,,4.96875,,0.0060377358490566035,0.0472
1994-08-16 23:00:00,4.9375,,4.9375,,4.9375,,0.0060759493670886075,0.047400000000000005
1994-08-17 23:00:00,4.96875,,4.96875,,4.96875,,0.0060377358490566035,0.046900000000000004
1994-08-18 23:00:00,4.9375,,4.9375,,4.9375,,0.0060759493670886075,0.0471
1994-08-19 23:00:00,4.90625,,4.90625,,4.90625,,0.006114649681528662,0.046900000000000004
1994-08-22 23:00:00,4.8125,,4.8125,,4.8125,,0.006233766233766234,0.0473
1994-08-23 23:00:00,4.84375,,4.84375,,4.84375,,0.006193548387096774,0.046900000000000004
1994-08-24 23:00:00,4.9375,,4.9375,,4.9375,,0.0060759493670886075,0.0466
1994-08-25 23:00:00,4.78125,,4.78125,,4.78125,,0.006274509803921568,0.046799999999999994
1994-08-26 23:00:00,4.8125,,4.8125,,4.8125,,0.006233766233766234,0.046799999999999994
1994-08-29 23:00:00,4.71875,,4.71875,,4.71875,,0.006357615894039735,0.0473
1994-08-30 23:00:00,4.8125,,4.8125,,4.8125,,0.006233766233766234,0.0471
1994-08-31 23:00:00,4.8125,,4.8125,,4.8125,,0.006233766233766234,0.046799999999999994
1994-09-01 23:00:00,4.84375,,4.84375,,4.84375,,0.006193548387096774,0.0467
1994-09-02 23:00:00,4.9375,,4.9375,,4.9375,,0.0060759493670886075,0.0467
1994-09-06 23:00:00,5.03125,,5.03125,,5.03125,,0.005962732919254658,0.046900000000000004
1994-09-07 23:00:00,5.1875,,5.1875,,5.1875,,0.005783132530120482,0.0466
1994-09-08 23:00:00,5.4375,,5.4375,,5.4375,,0.005517241379310344,0.0467
1994-09-09 23:00:00,5.125,,5.125,,5.125,,0.005853658536585366,0.047
1994-09-12 23:00:00,5.125,,5.125,,5.125,,0.005853658536585366,0.0475
1994-09-13 23:00:00,5.15625,,5.15625,,5.15625,,0.005818181818181818,0.0472
1994-09-14 23:00:00,5.25,,5.25,,5.25,,0.005714285714285714,0.047
1994-09-15 23:00:00,5.25,,5.25,,5.25,,0.005714285714285714,0.047
1994-09-16 23:00:00,5.375,,5.375,,5.375,,0.005581395348837209,0.0473
1994-09-19 23:00:00,5.25,,5.25,,5.25,,0.005714285714285714,0.0472
1994-09-20 23:00:00,5.125,,5.125,,5.125,,0.005853658536585366,0.047400000000000005
1994-09-21 23:00:00,5.0,,5.0,,5.0,,0.006,0.0492
1994-09-22 23:00:00,5.0,,5.0,,5.0,,0.006,0.0492
1994-09-23 23:00:00,5.1875,,5.1875,,5.1875,,0.005783132530120482,0.049100000000000005
1994-09-26 23:00:00,5.25,,5.25,,5.25,,0.005714285714285714,0.0492
1994-09-27 23:00:00,5.1875,,5.1875,,5.1875,,0.005783132530120482,0.0483
1994-09-28 23:00:00,5.15625,,5.15625,,5.15625,,0.005818181818181818,0.0466
1994-09-29 23:00:00,5.15625,,5.15625,,5.15625,,0.005818181818181818,0.047
1994-09-30 23:00:00,5.09375,,5.09375,,5.09375,,0.005889570552147239,0.048
1994-10-03 23:00:00,5.0625,,5.0625,,5.0625,,0.005925925925925926,0.050499999999999996
1994-10-04 23:00:00,4.96875,,4.96875,,4.96875,,0.0060377358490566035,0.0509
1994-10-05 23:00:00,5.03125,,5.03125,,5.03125,,0.005962732919254658,0.0509
1994-10-06 23:00:00,5.0625,,5.0625,,5.0625,,0.005925925925925926,0.051100000000000007
1994-10-07 23:00:00,5.28125,,5.28125,,5.28125,,0.007100591715976331,0.050199999999999995
1994-10-10 23:00:00,5.3125,,5.3125,,5.3125,,0.005647058823529411,0.050199999999999995
1994-10-11 23:00:00,5.3125,,5.3125,,5.3125,,0.005647058823529411,0.0506
1994-10-12 23:00:00,5.15625,,5.15625,,5.15625,,0.005818181818181818,0.0512
1994-10-13 23:00:00,5.25,,5.25,,5.25,,0.005714285714285714,0.050499999999999996
1994-10-14 23:00:00,5.25,,5.25,,5.25,,0.005714285714285714,0.05
1994-10-17 23:00:00,5.25,,5.25,,5.25,,0.005714285714285714,0.0504
1994-10-18 23:00:00,5.375,,5.375,,5.375,,0.005581395348837209,0.0504
1994-10-19 23:00:00,5.34375,,5.34375,,5.34375,,0.005614035087719298,0.050499999999999996
1994-10-20 23:00:00,5.25,,5.25,,5.25,,0.005714285714285714,0.051399999999999994
1994-10-21 23:00:00,5.21875,,5.21875,,5.21875,,0.005748502994011976,0.051500000000000004
1994-10-24 23:00:00,5.3125,,5.3125,,5.3125,,0.005647058823529411,0.052199999999999996
1994-10-25 23:00:00,5.25,,5.25,,5.25,,0.005714285714285714,0.052000000000000005
1994-10-26 23:00:00,5.40625,,5.40625,,5.40625,,0.0055491329479768784,0.0513
1994-10-27 23:00:00,5.53125,,5.53125,,5.53125,,0.0054237288135593215,0.0512
1994-10-28 23:00:00,5.65625,,5.65625,,5.65625,,0.005303867403314917,0.0516
1994-10-31 23:00:00,5.53125,,5.53125,,5.53125,,0.0054237288135593215,0.052000000000000005
1994-11-01 23:00:00,5.5625,,5.5625,,5.5625,,0.005393258426966292,0.052199999999999996
1994-11-02 23:00:00,5.46875,,5.46875,,5.46875,,0.005485714285714286,0.052300000000000006
1994-11-03 23:00:00,5.53125,,5.53125,,5.53125,,0.0054237288135593215,0.0525
1994-11-04 23:00:00,5.46875,,5.46875,,5.46875,,0.005485714285714286,0.0533
1994-11-07 23:00:00,5.4375,,5.4375,,5.4375,,0.005517241379310344,0.0542
1994-11-08 23:00:00,5.40625,,5.40625,,5.40625,,0.0055491329479768784,0.0537
1994-11-09 23:00:00,5.4375,,5.4375,,5.4375,,0.005517241379310344,0.053399999999999996
1994-11-10 23:00:00,5.4375,,5.4375,,5.4375,,0.005517241379310344,0.0538
1994-11-11 23:00:00,5.34375,,5.34375,,5.34375,,0.005614035087719298,0.0538
1994-11-14 23:00:00,5.25,,5.25,,5.25,,0.005714285714285714,0.0546
1994-11-15 23:00:00,5.28125,,5.28125,,5.28125,,0.005680473372781065,0.0553
1994-11-16 23:00:00,5.15625,,5.15625,,5.15625,,0.005818181818181818,0.0552
1994-11-17 23:00:00,4.96875,,4.96875,,4.96875,,0.0060377358490566035,0.055099999999999996
1994-11-18 23:00:00,4.78125,,4.78125,,4.78125,,0.006274509803921568,0.055
1994-11-21 23:00:00,4.75,,4.75,,4.75,,0.00631578947368421,0.0553
1994-11-22 23:00:00,4.6875,,4.6875,,4.6875,,0.0063999999999999994,0.054900000000000004
1994-11-23 23:00:00,4.59375,,4.59375,,4.59375,,0.0065306122448979586,0.054400000000000004
1994-11-25 23:00:00,4.53125,,4.53125,,4.53125,,0.006620689655172414,0.0545
1994-11-28 23:00:00,4.53125,,4.53125,,4.53125,,0.006620689655172414,0.055999999999999994
1994-11-29 23:00:00,4.59375,,4.59375,,4.59375,,0.0065306122448979586,0.056900000000000006
1994-11-30 23:00:00,4.53125,,4.53125,,4.53125,,0.006620689655172414,0.0572
1994-12-01 23:00:00,4.625,,4.625,,4.625,,0.006486486486486486,0.0571
1994-12-02 23:00:00,4.625,,4.625,,4.625,,0.006486486486486486,0.0579
1994-12-05 23:00:00,4.375,,4.375,,4.375,,0.006857142857142857,0.0603
1994-12-06 23:00:00,4.375,,4.375,,4.375,,0.006857142857142857,0.0594
1994-12-07 23:00:00,4.5625,,4.5625,,4.5625,,0.006575342465753424,0.0582
1994-12-08 23:00:00,4.6875,,4.6875,,4.6875,,0.0063999999999999994,0.0583
1994-12-09 23:00:00,4.59375,,4.59375,,4.59375,,0.0065306122448979586,0.0582
1994-12-12 23:00:00,4.65625,,4.65625,,4.65625,,0.006442953020134228,0.0593
1994-12-13 23:00:00,4.75,,4.75,,4.75,,0.00631578947368421,0.059500000000000004
1994-12-14 23:00:00,4.9375,,4.9375,,4.9375,,0.0060759493670886075,0.0584
1994-12-15 23:00:00,4.84375,,4.84375,,4.84375,,0.006193548387096774,0.057
1994-12-16 23:00:00,4.84375,,4.84375,,4.84375,,0.006193548387096774,0.0571
1994-12-19 23:00:00,4.8125,,4.8125,,4.8125,,0.006233766233766234,0.0575
1994-12-20 23:00:00,4.65625,,4.65625,,4.65625,,0.006442953020134228,0.056299999999999996
1994-12-21 23:00:00,4.625,,4.625,,4.625,,0.006486486486486486,0.0556
1994-12-22 23:00:00,4.53125,,4.53125,,4.53125,,0.006620689655172414,0.056100000000000004
1994-12-23 23:00:00,4.5625,,4.5625,,4.5625,,0.006575342465753424,0.056799999999999996
1994-12-27 23:00:00,4.5,,4.5,,4.5,,0.006666666666666666,0.0574
1994-12-28 23:00:00,4.59375,,4.59375,,4.59375,,0.0065306122448979586,0.056799999999999996
1994-12-29 23:00:00,4.71875,,4.71875,,4.71875,,0.006357615894039735,0.056600000000000004
1994-12-30 23:00:00,4.6875,,4.6875,,4.6875,,0.0063999999999999994,0.056799999999999996
1995-01-03 23:00:00,4.75,,4.75,,4.75,,0.00631578947368421,0.059500000000000004
1995-01-04 23:00:00,4.71875,,4.71875,,4.71875,,0.006357615894039735,0.058499999999999996
1995-01-05 23:00:00,4.65625,,4.65625,,4.65625,,0.006442953020134228,0.0588
1995-01-06 23:00:00,4.5625,,4.5625,,4.5625,,0.006575342465753424,0.059000000000000004
1995-01-09 23:00:00,4.46875,,4.46875,,4.46875,,0.008391608391608392,0.06
1995-01-10 23:00:00,4.3125,,4.3125,,4.3125,,0.006956521739130434,0.0591
1995-01-11 23:00:00,4.40625,,4.40625,,4.40625,,0.006808510638297872,0.0579
1995-01-12 23:00:00,4.3125,,4.3125,,4.3125,,0.006956521739130434,0.057800000000000004
1995-01-13 23:00:00,4.375,,4.375,,4.375,,0.006857142857142857,0.0572
1995-01-16 23:00:00,4.3125,,4.3125,,4.3125,,0.006956521739130434,0.0572
1995-01-17 23:00:00,4.40625,,4.40625,,4.40625,,0.006808510638297872,0.058899999999999994
1995-01-18 23:00:00,4.5625,,4.5625,,4.5625,,0.006575342465753424,0.0587
1995-01-19 23:00:00,4.5,,4.5,,4.5,,0.006666666666666666,0.0587
1995-01-20 23:00:00,4.53125,,4.53125,,4.53125,,0.006620689655172414,0.0591
1995-01-23 23:00:00,4.375,,4.375,,4.375,,0.006857142857142857,0.059699999999999996
1995-01-24 23:00:00,4.53125,,4.53125,,4.53125,,0.006620689655172414,0.059800000000000006
1995-01-25 23:00:00,4.5,,4.5,,4.5,,0.006666666666666666,0.0594
1995-01-26 23:00:00,4.625,,4.625,,4.625,,0.006486486486486486,0.0594
1995-01-27 23:00:00,4.53125,,4.53125,,4.53125,,0.006620689655172414,0.0592
1995-01-30 23:00:00,4.46875,,4.46875,,4.46875,,0.006713286713286713,0.0596
1995-01-31 23:00:00,4.4375,,4.4375,,4.4375,,0.00676056338028169,0.06
1995-02-01 23:00:00,4.46875,,4.46875,,4.46875,,0.006713286713286713,0.060700000000000004
1995-02-02 23:00:00,4.46875,,4.46875,,4.46875,,0.006713286713286713,0.0602
1995-02-03 23:00:00,4.5,,4.5,,4.5,,0.006666666666666666,0.0596
1995-02-06 23:00:00,4.75,,4.75,,4.75,,0.00631578947368421,0.059800000000000006
1995-02-07 23:00:00,4.6875,,4.6875,,4.6875,,0.0063999999999999994,0.059800000000000006
1995-02-08 23:00:00,4.75,,4.75,,4.75,,0.00631578947368421,0.0594
1995-02-09 23:00:00,4.6875,,4.6875,,4.6875,,0.0063999999999999994,0.059500000000000004
1995-02-10 23:00:00,4.78125,,4.78125,,4.78125,,0.006274509803921568,0.059699999999999996
1995-02-13 23:00:00,4.84375,,4.84375,,4.84375,,0.006193548387096774,0.059800000000000006
1995-02-14 23:00:00,4.84375,,4.84375,,4.84375,,0.006193548387096774,0.0596
1995-02-15 23:00:00,4.9375,,4.9375,,4.9375,,0.0060759493670886075,0.0594
1995-02-16 23:00:00,5.0,,5.0,,5.0,,0.006,0.058499999999999996
1995-02-17 23:00:00,5.125,,5.125,,5.125,,0.005853658536585366,0.058600000000000006
1995-02-21 23:00:00,5.125,,5.125,,5.125,,0.005853658536585366,0.0592
1995-02-22 23:00:00,5.09375,,5.09375,,5.09375,,0.005889570552147239,0.058499999999999996
1995-02-23 23:00:00,5.15625,,5.15625,,5.15625,,0.005818181818181818,0.0588
1995-02-24 23:00:00,5.125,,5.125,,5.125,,0.005853658536585366,0.0588
1995-02-27 23:00:00,5.15625,,5.15625,,5.15625,,0.005818181818181818,0.0592
1995-02-28 23:00:00,5.21875,,5.21875,,5.21875,,0.005748502994011976,0.0594
1995-03-01 23:00:00,5.15625,,5.15625,,5.15625,,0.005818181818181818,0.0594
1995-03-02 23:00:00,5.25,,5.25,,5.25,,0.005714285714285714,0.0593
1995-03-03 23:00:00,5.25,,5.25,,5.25,,0.005714285714285714,0.0591
1995-03-06 23:00:00,5.21875,,5.21875,,5.21875,,0.005748502994011976,0.0594
1995-03-07 23:00:00,5.125,,5.125,,5.125,,0.005853658536585366,0.0596
1995-03-08 23:00:00,5.21875,,5.21875,,5.21875,,0.005748502994011976,0.059500000000000004
1995-03-09 23:00:00,5.28125,,5.28125,,5.28125,,0.005680473372781065,0.0591
1995-03-10 23:00:00,5.15625,,5.15625,,5.15625,,0.005818181818181818,0.0596
1995-03-13 23:00:00,5.1875,,5.1875,,5.1875,,0.005783132530120482,0.0594
1995-03-14 23:00:00,5.25,,5.25,,5.25,,0.005714285714285714,0.0593
1995-03-15 23:00:00,5.3125,,5.3125,,5.3125,,0.005647058823529411,0.0592
1995-03-16 23:00:00,5.4375,,5.4375,,5.4375,,0.005517241379310344,0.0592
1995-03-17 23:00:00,5.4375,,5.4375,,5.4375,,0.005517241379310344,0.0592
1995-03-20 23:00:00,5.34375,,5.34375,,5.34375,,0.005614035087719298,0.0593
1995-03-21 23:00:00,5.25,,5.25,,5.25,,0.005714285714285714,0.0592
1995-03-22 23:00:00,5.3125,,5.3125,,5.3125,,0.005647058823529411,0.0591
1995-03-23 23:00:00,5.40625,,5.40625,,5.40625,,0.0055491329479768784,0.058899999999999994
1995-03-24 23:00:00,5.3125,,5.3125,,5.3125,,0.005647058823529411,0.058499999999999996
1995-03-27 23:00:00,5.5,,5.5,,5.5,,0.005454545454545454,0.0582
1995-03-28 23:00:00,5.5625,,5.5625,,5.5625,,0.005393258426966292,0.058899999999999994
1995-03-29 23:00:00,5.625,,5.625,,5.625,,0.005333333333333333,0.0584
1995-03-30 23:00:00,5.875,,5.875,,5.875,,0.005106382978723404,0.0588
1995-03-31 23:00:00,6.15625,,6.15625,,6.15625,,0.004873096446700508,0.0588
1995-04-03 23:00:00,5.96875,,5.96875,,5.96875,,0.005026178010471204,0.0594
1995-04-04 23:00:00,5.875,,5.875,,5.875,,0.005106382978723404,0.0591
1995-04-05 23:00:00,5.90625,,5.90625,,5.90625,,0.005079365079365079,0.0588
1995-04-06 23:00:00,5.71875,,5.71875,,5.71875,,0.005245901639344262,0.058499999999999996
1995-04-07 23:00:00,5.625,,5.625,,5.625,,0.006666666666666666,0.058600000000000006
1995-04-10 23:00:00,5.75,,5.75,,5.75,,0.006521739130434782,0.058499999999999996
1995-04-11 23:00:00,5.75,,5.75,,5.75,,0.005217391304347826,0.0584
1995-04-12 23:00:00,5.78125,,5.78125,,5.78125,,0.005189189189189189,0.0582
1995-04-13 23:00:00,5.75,,5.75,,5.75,,0.005217391304347826,0.0575
1995-04-17 23:00:00,5.75,,5.75,,5.75,,0.005217391304347826,0.057999999999999996
1995-04-18 23:00:00,5.5625,,5.5625,,5.5625,,0.005393258426966292,0.0579
1995-04-19 23:00:00,5.625,,5.625,,5.625,,0.005333333333333333,0.057999999999999996
1995-04-20 23:00:00,5.78125,,5.78125,,5.78125,,0.005189189189189189,0.057699999999999994
1995-04-21 23:00:00,6.09375,,6.09375,,6.09375,,0.004923076923076923,0.0579
1995-04-24 23:00:00,5.9375,,5.9375,,5.9375,,0.0050526315789473685,0.0583
1995-04-25 23:00:00,5.84375,,5.84375,,5.84375,,0.0051336898395721925,0.058499999999999996
1995-04-26 23:00:00,5.78125,,5.78125,,5.78125,,0.005189189189189189,0.058499999999999996
1995-04-27 23:00:00,5.65625,,5.65625,,5.65625,,0.005303867403314917,0.0587
1995-04-28 23:00:00,5.71875,,5.71875,,5.71875,,0.005245901639344262,0.0587
1995-05-01 23:00:00,5.75,,5.75,,5.75,,0.005217391304347826,0.0591
1995-05-02 23:00:00,5.75,,5.75,,5.75,,0.005217391304347826,0.058899999999999994
1995-05-03 23:00:00,5.75,,5.75,,5.75,,0.005217391304347826,0.0584
1995-05-04 23:00:00,5.71875,,5.71875,,5.71875,,0.005245901639344262,0.057800000000000004
1995-05-05 23:00:00,5.65625,,5.65625,,5.65625,,0.005303867403314917,0.0574
1995-05-08 23:00:00,5.65625,,5.65625,,5.65625,,0.005303867403314917,0.0581
1995-05-09 23:00:00,5.8125,,5.8125,,5.8125,,0.005161290322580645,0.0581
1995-05-10 23:00:00,5.9375,,5.9375,,5.9375,,0.0050526315789473685,0.0582
1995-05-11 23:00:00,5.8125,,5.8125,,5.8125,,0.005161290322580645,0.0584
1995-05-12 23:00:00,5.78125,,5.78125,,5.78125,,0.005189189189189189,0.0587
1995-05-15 23:00:00,5.875,,5.875,,5.875,,0.005106382978723404,0.0588
1995-05-16 23:00:00,5.84375,,5.84375,,5.84375,,0.0051336898395721925,0.0587
1995-05-17 23:00:00,5.8125,,5.8125,,5.8125,,0.005161290322580645,0.058600000000000006
1995-05-18 23:00:00,5.71875,,5.71875,,5.71875,,0.005245901639344262,0.0587
1995-05-19 23:00:00,5.75,,5.75,,5.75,,0.005217391304347826,0.0587
1995-05-22 23:00:00,5.6875,,5.6875,,5.6875,,0.005274725274725275,0.0591
1995-05-23 23:00:00,5.875,,5.875,,5.875,,0.005106382978723404,0.0591
1995-05-24 23:00:00,6.09375,,6.09375,,6.09375,,0.004923076923076923,0.0587
1995-05-25 23:00:00,6.0625,,6.0625,,6.0625,,0.004948453608247422,0.0584
1995-05-26 23:00:00,5.96875,,5.96875,,5.96875,,0.005026178010471204,0.0584
1995-05-30 23:00:00,6.03125,,6.03125,,6.03125,,0.004974093264248704,0.0581
1995-05-31 23:00:00,6.0625,,6.0625,,6.0625,,0.004948453608247422,0.0581
1995-06-01 23:00:00,6.03125,,6.03125,,6.03125,,0.004974093264248704,0.0567
1995-06-02 23:00:00,5.96875,,5.96875,,5.96875,,0.005026178010471204,0.0558
1995-06-05 23:00:00,6.0,,6.0,,6.0,,0.005,0.056799999999999996
1995-06-06 23:00:00,5.90625,,5.90625,,5.90625,,0.005079365079365079,0.056900000000000006
1995-06-07 23:00:00,5.8125,,5.8125,,5.8125,,0.005161290322580645,0.0574
1995-06-08 23:00:00,5.78125,,5.78125,,5.78125,,0.005189189189189189,0.0576
1995-06-09 23:00:00,5.78125,,5.78125,,5.78125,,0.005189189189189189,0.057699999999999994
1995-06-12 23:00:00,5.75,,5.75,,5.75,,0.005217391304347826,0.057300000000000004
1995-06-13 23:00:00,5.71875,,5.71875,,5.71875,,0.005245901639344262,0.056100000000000004
1995-06-14 23:00:00,5.78125,,5.78125,,5.78125,,0.005189189189189189,0.056100000000000004
1995-06-15 23:00:00,5.8125,,5.8125,,5.8125,,0.005161290322580645,0.0565
1995-06-16 23:00:00,5.6875,,5.6875,,5.6875,,0.005274725274725275,0.056600000000000004
1995-06-19 23:00:00,5.6875,,5.6875,,5.6875,,0.005274725274725275,0.056299999999999996
1995-06-20 23:00:00,5.34375,,5.34375,,5.34375,,0.005614035087719298,0.0565
1995-06-21 23:00:00,5.21875,,5.21875,,5.21875,,0.005748502994011976,0.055999999999999994
1995-06-22 23:00:00,5.15625,,5.15625,,5.15625,,0.005818181818181818,0.0554
1995-06-23 23:00:00,5.3125,,5.3125,,5.3125,,0.005647058823529411,0.0554
1995-06-26 23:00:00,5.34375,,5.34375,,5.34375,,0.005614035087719298,0.0552
1995-06-27 23:00:00,5.40625,,5.40625,,5.40625,,0.0055491329479768784,0.0559
1995-06-28 23:00:00,5.25,,5.25,,5.25,,0.005714285714285714,0.0557
1995-06-29 23:00:00,5.1875,,5.1875,,5.1875,,0.005783132530120482,0.0567
1995-06-30 23:00:00,5.4375,,5.4375,,5.4375,,0.005517241379310344,0.055999999999999994
1995-07-03 23:00:00,5.46875,,5.46875,,5.46875,,0.005485714285714286,0.056799999999999996
1995-07-05 23:00:00,5.28125,,5.28125,,5.28125,,0.005680473372781065,0.056799999999999996
1995-07-06 23:00:00,5.25,,5.25,,5.25,,0.005714285714285714,0.0553
1995-07-07 23:00:00,5.25,,5.25,,5.25,,0.005714285714285714,0.0554
1995-07-10 23:00:00,5.125,,5.125,,5.125,,0.005853658536585366,0.0553
1995-07-11 23:00:00,5.15625,,5.15625,,5.15625,,0.004363636363636364,0.0556
1995-07-12 23:00:00,5.25,,5.25,,5.25,,0.005714285714285714,0.0555
1995-07-13 23:00:00,5.21875,,5.21875,,5.21875,,0.005748502994011976,0.0555
1995-07-14 23:00:00,5.1875,,5.1875,,5.1875,,0.005783132530120482,0.0559
1995-07-17 23:00:00,5.21875,,5.21875,,5.21875,,0.005748502994011976,0.056299999999999996
1995-07-18 23:00:00,5.28125,,5.28125,,5.28125,,0.005680473372781065,0.056100000000000004
1995-07-19 23:00:00,5.25,,5.25,,5.25,,0.005714285714285714,0.0558
1995-07-20 23:00:00,5.28125,,5.28125,,5.28125,,0.005680473372781065,0.055999999999999994
1995-07-21 23:00:00,5.34375,,5.34375,,5.34375,,0.005614035087719298,0.056100000000000004
1995-07-24 23:00:00,5.375,,5.375,,5.375,,0.005581395348837209,0.056100000000000004
1995-07-25 23:00:00,5.4375,,5.4375,,5.4375,,0.005517241379310344,0.0562
1995-07-26 23:00:00,5.34375,,5.34375,,5.34375,,0.005614035087719298,0.056299999999999996
1995-07-27 23:00:00,5.28125,,5.28125,,5.28125,,0.005680473372781065,0.0558
1995-07-28 23:00:00,5.375,,5.375,,5.375,,0.005581395348837209,0.0558
1995-07-31 23:00:00,5.40625,,5.40625,,5.40625,,0.0055491329479768784,0.055999999999999994
1995-08-01 23:00:00,5.21875,,5.21875,,5.21875,,0.005748502994011976,0.056100000000000004
1995-08-02 23:00:00,5.21875,,5.21875,,5.21875,,0.005748502994011976,0.0559
1995-08-03 23:00:00,5.34375,,5.34375,,5.34375,,0.005614035087719298,0.0559
1995-08-04 23:00:00,5.34375,,5.34375,,5.34375,,0.005614035087719298,0.0558
1995-08-07 23:00:00,5.375,,5.375,,5.375,,0.005581395348837209,0.0557
1995-08-08 23:00:00,5.34375,,5.34375,,5.34375,,0.005614035087719298,0.0555
1995-08-09 23:00:00,5.3125,,5.3125,,5.3125,,0.005647058823529411,0.0556
1995-08-10 23:00:00,5.1875,,5.1875,,5.1875,,0.005783132530120482,0.0557
1995-08-11 23:00:00,5.3125,,5.3125,,5.3125,,0.005647058823529411,0.0559
1995-08-14 23:00:00,5.25,,5.25,,5.25,,0.005714285714285714,0.055999999999999994
1995-08-15 23:00:00,5.25,,5.25,,5.25,,0.005714285714285714,0.0562
1995-08-16 23:00:00,5.21875,,5.21875,,5.21875,,0.005748502994011976,0.055999999999999994
1995-08-17 23:00:00,5.28125,,5.28125,,5.28125,,0.005680473372781065,0.056100000000000004
1995-08-18 23:00:00,5.40625,,5.40625,,5.40625,,0.0055491329479768784,0.056100000000000004
1995-08-21 23:00:00,5.40625,,5.40625,,5.40625,,0.0055491329479768784,0.0562
1995-08-22 23:00:00,5.53125,,5.53125,,5.53125,,0.0054237288135593215,0.056299999999999996
1995-08-23 23:00:00,5.625,,5.625,,5.625,,0.005333333333333333,0.055999999999999994
1995-08-24 23:00:00,5.5,,5.5,,5.5,,0.005454545454545454,0.0552
1995-08-25 23:00:00,5.5,,5.5,,5.5,,0.005454545454545454,0.055
1995-08-28 23:00:00,5.53125,,5.53125,,5.53125,,0.0054237288135593215,0.0548
1995-08-29 23:00:00,5.53125,,5.53125,,5.53125,,0.0054237288135593215,0.055
1995-08-30 23:00:00,5.65625,,5.65625,,5.65625,,0.005303867403314917,0.0546
1995-08-31 23:00:00,5.8125,,5.8125,,5.8125,,0.005161290322580645,0.0545
1995-09-01 23:00:00,5.96875,,5.96875,,5.96875,,0.005026178010471204,0.0545
1995-09-05 23:00:00,6.03125,,6.03125,,6.03125,,0.004974093264248704,0.054900000000000004
1995-09-06 23:00:00,6.0,,6.0,,6.0,,0.005,0.0548
1995-09-07 23:00:00,6.03125,,6.03125,,6.03125,,0.004974093264248704,0.055
1995-09-08 23:00:00,5.9375,,5.9375,,5.9375,,0.0050526315789473685,0.0552
1995-09-11 23:00:00,6.03125,,6.03125,,6.03125,,0.004974093264248704,0.055
1995-09-12 23:00:00,6.15625,,6.15625,,6.15625,,0.004873096446700508,0.0547
1995-09-13 23:00:00,6.0625,,6.0625,,6.0625,,0.004948453608247422,0.0547
1995-09-14 23:00:00,6.09375,,6.09375,,6.09375,,0.004923076923076923,0.054400000000000004
1995-09-15 23:00:00,6.1875,,6.1875,,6.1875,,0.0048484848484848485,0.0546
1995-09-18 23:00:00,6.21875,,6.21875,,6.21875,,0.004824120603015075,0.0541
1995-09-19 23:00:00,6.15625,,6.15625,,6.15625,,0.004873096446700508,0.0536
1995-09-20 23:00:00,6.0,,6.0,,6.0,,0.005,0.053399999999999996
1995-09-21 23:00:00,6.03125,,6.03125,,6.03125,,0.004974093264248704,0.054000000000000006
1995-09-22 23:00:00,5.875,,5.875,,5.875,,0.005106382978723404,0.0535
1995-09-25 23:00:00,5.78125,,5.78125,,5.78125,,0.005189189189189189,0.0533
1995-09-26 23:00:00,5.65625,,5.65625,,5.65625,,0.005303867403314917,0.0545
1995-09-27 23:00:00,5.75,,5.75,,5.75,,0.005217391304347826,0.0542
1995-09-28 23:00:00,5.625,,5.625,,5.625,,0.005333333333333333,0.054400000000000004
1995-09-29 23:00:00,5.4375,,5.4375,,5.4375,,0.005517241379310344,0.054000000000000006
1995-10-02 23:00:00,5.59375,,5.59375,,5.59375,,0.005363128491620112,0.0553
1995-10-03 23:00:00,5.65625,,5.65625,,5.65625,,0.005303867403314917,0.055099999999999996
1995-10-04 23:00:00,5.65625,,5.65625,,5.65625,,0.005303867403314917,0.0547
1995-10-05 23:00:00,5.53125,,5.53125,,5.53125,,0.0054237288135593215,0.054400000000000004
1995-10-06 23:00:00,5.5625,,5.5625,,5.5625,,0.005393258426966292,0.0547
1995-10-09 23:00:00,5.5,,5.5,,5.5,,0.00409090909090909,0.0547
1995-10-10 23:00:00,5.375,,5.375,,5.375,,0.004186046511627906,0.0547
1995-10-11 23:00:00,5.34375,,5.34375,,5.34375,,0.004210526315789474,0.0547
1995-10-12 23:00:00,5.5,,5.5,,5.5,,0.005454545454545454,0.0546
1995-10-13 23:00:00,5.53125,,5.53125,,5.53125,,0.0054237288135593215,0.0545
1995-10-16 23:00:00,5.46875,,5.46875,,5.46875,,0.005485714285714286,0.054900000000000004
1995-10-17 23:00:00,5.5,,5.5,,5.5,,0.005454545454545454,0.054299999999999994
1995-10-18 23:00:00,5.25,,5.25,,5.25,,0.005714285714285714,0.0541
1995-10-19 23:00:00,5.21875,,5.21875,,5.21875,,0.005748502994011976,0.0541
1995-10-20 23:00:00,5.125,,5.125,,5.125,,0.005853658536585366,0.054299999999999994
1995-10-23 23:00:00,5.0,,5.0,,5.0,,0.006,0.0538
1995-10-24 23:00:00,4.9375,,4.9375,,4.9375,,0.0060759493670886075,0.0538
1995-10-25 23:00:00,4.71875,,4.71875,,4.71875,,0.006357615894039735,0.053899999999999997
1995-10-26 23:00:00,4.71875,,4.71875,,4.71875,,0.006357615894039735,0.0538
1995-10-27 23:00:00,4.875,,4.875,,4.875,,0.006153846153846154,0.0541
1995-10-30 23:00:00,4.96875,,4.96875,,4.96875,,0.0060377358490566035,0.0547
1995-10-31 23:00:00,5.0,,5.0,,5.0,,0.006,0.0548
1995-11-01 23:00:00,5.0,,5.0,,5.0,,0.006,0.0548
1995-11-02 23:00:00,4.9375,,4.9375,,4.9375,,0.0060759493670886075,0.0547
1995-11-03 23:00:00,4.96875,,4.96875,,4.96875,,0.0060377358490566035,0.0547
1995-11-06 23:00:00,4.90625,,4.90625,,4.90625,,0.006114649681528662,0.0552
1995-11-07 23:00:00,5.03125,,5.03125,,5.03125,,0.005962732919254658,0.0553
1995-11-08 23:00:00,5.0,,5.0,,5.0,,0.006,0.0552
1995-11-09 23:00:00,5.03125,,5.03125,,5.03125,,0.005962732919254658,0.0555
1995-11-10 23:00:00,4.90625,,4.90625,,4.90625,,0.006114649681528662,0.0558
1995-11-13 23:00:00,5.09375,,5.09375,,5.09375,,0.005889570552147239,0.0559
1995-11-14 23:00:00,4.96875,,4.96875,,4.96875,,0.0060377358490566035,0.0555
1995-11-15 23:00:00,5.0,,5.0,,5.0,,0.006,0.0556
1995-11-16 23:00:00,5.375,,5.375,,5.375,,0.005581395348837209,0.0552
1995-11-17 23:00:00,5.40625,,5.40625,,5.40625,,0.0055491329479768784,0.055099999999999996
1995-11-20 23:00:00,5.1875,,5.1875,,5.1875,,0.005783132530120482,0.055
1995-11-21 23:00:00,5.34375,,5.34375,,5.34375,,0.005614035087719298,0.0552
1995-11-22 23:00:00,5.40625,,5.40625,,5.40625,,0.0055491329479768784,0.0552
1995-11-24 23:00:00,5.3125,,5.3125,,5.3125,,0.005647058823529411,0.0548
1995-11-27 23:00:00,5.1875,,5.1875,,5.1875,,0.005783132530120482,0.055
1995-11-28 23:00:00,5.25,,5.25,,5.25,,0.005714285714285714,0.0553
1995-11-29 23:00:00,5.21875,,5.21875,,5.21875,,0.005748502994011976,0.055
1995-11-30 23:00:00,5.25,,5.25,,5.25,,0.005714285714285714,0.0548
1995-12-01 23:00:00,5.28125,,5.28125,,5.28125,,0.005680473372781065,0.0545
1995-12-04 23:00:00,5.3125,,5.3125,,5.3125,,0.005647058823529411,0.0546
1995-12-05 23:00:00,5.375,,5.375,,5.375,,0.005581395348837209,0.0547
1995-12-06 23:00:00,5.4375,,5.4375,,5.4375,,0.005517241379310344,0.0548
1995-12-07 23:00:00,5.5,,5.5,,5.5,,0.005454545454545454,0.055
1995-12-08 23:00:00,5.65625,,5.65625,,5.65625,,0.005303867403314917,0.055
1995-12-11 23:00:00,5.875,,5.875,,5.875,,0.005106382978723404,0.0545
1995-12-12 23:00:00,5.875,,5.875,,5.875,,0.005106382978723404,0.0541
1995-12-13 23:00:00,6.0,,6.0,,6.0,,0.005,0.0542
1995-12-14 23:00:00,5.90625,,5.90625,,5.90625,,0.005079365079365079,0.0542
1995-12-15 23:00:00,6.0,,6.0,,6.0,,0.005,0.0535
1995-12-18 23:00:00,5.96875,,5.96875,,5.96875,,0.005026178010471204,0.053200000000000004
1995-12-19 23:00:00,6.0625,,6.0625,,6.0625,,0.004948453608247422,0.0524
1995-12-20 23:00:00,6.03125,,6.03125,,6.03125,,0.004974093264248704,0.051500000000000004
1995-12-21 23:00:00,6.03125,,6.03125,,6.03125,,0.004974093264248704,0.050499999999999996
1995-12-22 23:00:00,6.03125,,6.03125,,6.03125,,0.004974093264248704,0.0504
1995-12-26 23:00:00,6.03125,,6.03125,,6.03125,,0.004974093264248704,0.050499999999999996
1995-12-27 23:00:00,5.9375,,5.9375,,5.9375,,0.0050526315789473685,0.0504
1995-12-28 23:00:00,6.15625,,6.15625,,6.15625,,0.004873096446700508,0.049800000000000004
1995-12-29 23:00:00,6.0,,6.0,,6.0,,0.005,0.051
1996-01-02 23:00:00,6.09375,,6.09375,,6.09375,,0.004923076923076923,0.052000000000000005
1996-01-03 23:00:00,5.96875,,5.96875,,5.96875,,0.005026178010471204,0.052000000000000005
1996-01-04 23:00:00,5.96875,,5.96875,,5.96875,,0.005026178010471204,0.0519
1996-01-05 23:00:00,6.0625,,6.0625,,6.0625,,0.004948453608247422,0.0519
1996-01-08 23:00:00,6.125,,6.125,,6.125,,0.004897959183673469,0.0518
1996-01-09 23:00:00,6.0,,6.0,,6.0,,0.00375,0.0518
1996-01-10 23:00:00,5.96875,,5.96875,,5.96875,,0.003769633507853403,0.0519
1996-01-11 23:00:00,5.78125,,5.78125,,5.78125,,0.005189189189189189,0.0519
1996-01-12 23:00:00,5.8125,,5.8125,,5.8125,,0.005161290322580645,0.0518
1996-01-15 23:00:00,5.75,,5.75,,5.75,,0.005217391304347826,0.0518
1996-01-16 23:00:00,5.75,,5.75,,5.75,,0.005217391304347826,0.051399999999999994
1996-01-17 23:00:00,5.75,,5.75,,5.75,,0.005217391304347826,0.051399999999999994
1996-01-18 23:00:00,5.78125,,5.78125,,5.78125,,0.005189189189189189,0.051100000000000007
1996-01-19 23:00:00,5.75,,5.75,,5.75,,0.005217391304347826,0.051
1996-01-22 23:00:00,5.875,,5.875,,5.875,,0.005106382978723404,0.051399999999999994
1996-01-23 23:00:00,5.78125,,5.78125,,5.78125,,0.005189189189189189,0.0512
1996-01-24 23:00:00,5.875,,5.875,,5.875,,0.005106382978723404,0.0512
1996-01-25 23:00:00,5.9375,,5.9375,,5.9375,,0.0050526315789473685,0.0512
1996-01-26 23:00:00,5.875,,5.875,,5.875,,0.005106382978723404,0.051100000000000007
1996-01-29 23:00:00,6.0,,6.0,,6.0,,0.005,0.051699999999999996
1996-01-30 23:00:00,6.03125,,6.03125,,6.03125,,0.004974093264248704,0.051399999999999994
1996-01-31 23:00:00,6.09375,,6.09375,,6.09375,,0.004923076923076923,0.050499999999999996
1996-02-01 23:00:00,6.21875,,6.21875,,6.21875,,0.004824120603015075,0.050300000000000004
1996-02-02 23:00:00,6.15625,,6.15625,,6.15625,,0.004873096446700508,0.0499
1996-02-05 23:00:00,6.09375,,6.09375,,6.09375,,0.004923076923076923,0.05
1996-02-06 23:00:00,6.03125,,6.03125,,6.03125,,0.004974093264248704,0.049800000000000004
1996-02-07 23:00:00,6.125,,6.125,,6.125,,0.004897959183673469,0.049400000000000006
1996-02-08 23:00:00,6.1875,,6.1875,,6.1875,,0.0048484848484848485,0.0492
1996-02-09 23:00:00,6.25,,6.25,,6.25,,0.0048,0.0493
1996-02-12 23:00:00,6.53125,,6.53125,,6.53125,,0.004593301435406699,0.0493
1996-02-13 23:00:00,6.34375,,6.34375,,6.34375,,0.004729064039408867,0.0493
1996-02-14 23:00:00,6.5625,,6.5625,,6.5625,,0.004571428571428571,0.049400000000000006
1996-02-15 23:00:00,6.90625,,6.90625,,6.90625,,0.004343891402714932,0.0492
1996-02-16 23:00:00,6.75,,6.75,,6.75,,0.0044444444444444444,0.0489
1996-02-20 23:00:00,6.625,,6.625,,6.625,,0.004528301886792453,0.0499
1996-02-21 23:00:00,6.71875,,6.71875,,6.71875,,0.004465116279069767,0.0496
1996-02-22 23:00:00,6.6875,,6.6875,,6.6875,,0.004485981308411215,0.0495
1996-02-23 23:00:00,6.71875,,6.71875,,6.71875,,0.004465116279069767,0.049699999999999994
1996-02-26 23:00:00,6.59375,,6.59375,,6.59375,,0.004549763033175355,0.049800000000000004
1996-02-27 23:00:00,6.59375,,6.59375,,6.59375,,0.004549763033175355,0.0501
1996-02-28 23:00:00,6.40625,,6.40625,,6.40625,,0.0046829268292682925,0.0501
1996-02-29 23:00:00,6.25,,6.25,,6.25,,0.0048,0.050199999999999995
1996-03-01 23:00:00,6.25,,6.25,,6.25,,0.0048,0.049800000000000004
1996-03-04 23:00:00,6.3125,,6.3125,,6.3125,,0.004752475247524752,0.050199999999999995
1996-03-05 23:00:00,6.25,,6.25,,6.25,,0.0048,0.050199999999999995
1996-03-06 23:00:00,6.40625,,6.40625,,6.40625,,0.0046829268292682925,0.050300000000000004
1996-03-07 23:00:00,6.375,,6.375,,6.375,,0.004705882352941176,0.050300000000000004
1996-03-08 23:00:00,6.21875,,6.21875,,6.21875,,0.004824120603015075,0.0501
1996-03-11 23:00:00,6.15625,,6.15625,,6.15625,,0.004873096446700508,0.0509
1996-03-12 23:00:00,6.125,,6.125,,6.125,,0.004897959183673469,0.0509
1996-03-13 23:00:00,6.1875,,6.1875,,6.1875,,0.0048484848484848485,0.0509
1996-03-14 23:00:00,6.3125,,6.3125,,6.3125,,0.004752475247524752,0.051100000000000007
1996-03-15 23:00:00,6.0625,,6.0625,,6.0625,,0.004948453608247422,0.051399999999999994
1996-03-18 23:00:00,6.375,,6.375,,6.375,,0.004705882352941176,0.051699999999999996
1996-03-19 23:00:00,6.34375,,6.34375,,6.34375,,0.004729064039408867,0.0519
1996-03-20 23:00:00,6.1875,,6.1875,,6.1875,,0.0048484848484848485,0.0516
1996-03-21 23:00:00,6.125,,6.125,,6.125,,0.004897959183673469,0.0507
1996-03-22 23:00:00,6.09375,,6.09375,,6.09375,,0.004923076923076923,0.051
1996-03-25 23:00:00,6.28125,,6.28125,,6.28125,,0.004776119402985075,0.0513
1996-03-26 23:00:00,6.3125,,6.3125,,6.3125,,0.004752475247524752,0.0513
1996-03-27 23:00:00,6.53125,,6.53125,,6.53125,,0.004593301435406699,0.051699999999999996
1996-03-28 23:00:00,6.65625,,6.65625,,6.65625,,0.004507042253521127,0.0519
1996-03-29 23:00:00,6.59375,,6.59375,,6.59375,,0.004549763033175355,0.0513
1996-04-01 23:00:00,6.6875,,6.6875,,6.6875,,0.004485981308411215,0.052000000000000005
1996-04-02 23:00:00,6.84375,,6.84375,,6.84375,,0.004383561643835616,0.0516
1996-04-03 23:00:00,6.9375,,6.9375,,6.9375,,0.004324324324324324,0.051500000000000004
1996-04-04 23:00:00,6.875,,6.875,,6.875,,0.004363636363636364,0.051100000000000007
1996-04-08 23:00:00,6.8125,,6.8125,,6.8125,,0.0033027522935779813,0.0516
1996-04-09 23:00:00,6.875,,6.875,,6.875,,0.0032727272727272726,0.051
1996-04-10 23:00:00,6.9375,,6.9375,,6.9375,,0.003243243243243243,0.0508
1996-04-11 23:00:00,6.875,,6.875,,6.875,,0.004363636363636364,0.0508
1996-04-12 23:00:00,6.65625,,6.65625,,6.65625,,0.004507042253521127,0.0507
1996-04-15 23:00:00,6.75,,6.75,,6.75,,0.0044444444444444444,0.049699999999999994
1996-04-16 23:00:00,6.75,,6.75,,6.75,,0.0044444444444444444,0.0495
1996-04-17 23:00:00,6.6875,,6.6875,,6.6875,,0.004485981308411215,0.0496
1996-04-18 23:00:00,6.53125,,6.53125,,6.53125,,0.004593301435406699,0.049800000000000004
1996-04-19 23:00:00,6.65625,,6.65625,,6.65625,,0.004507042253521127,0.0501
1996-04-22 23:00:00,6.8125,,6.8125,,6.8125,,0.004403669724770642,0.0509
1996-04-23 23:00:00,6.90625,,6.90625,,6.90625,,0.004343891402714932,0.051
1996-04-24 23:00:00,7.03125,,7.03125,,7.03125,,0.004266666666666667,0.0513
1996-04-25 23:00:00,6.9375,,6.9375,,6.9375,,0.004324324324324324,0.0509
1996-04-26 23:00:00,6.78125,,6.78125,,6.78125,,0.004423963133640553,0.051100000000000007
1996-04-29 23:00:00,6.78125,,6.78125,,6.78125,,0.004423963133640553,0.051399999999999994
1996-04-30 23:00:00,6.625,,6.625,,6.625,,0.004528301886792453,0.051399999999999994
1996-05-01 23:00:00,6.5,,6.5,,6.5,,0.004615384615384615,0.051100000000000007
1996-05-02 23:00:00,6.5625,,6.5625,,6.5625,,0.004571428571428571,0.0513
1996-05-03 23:00:00,6.625,,6.625,,6.625,,0.004528301886792453,0.051399999999999994
1996-05-06 23:00:00,6.5625,,6.5625,,6.5625,,0.004571428571428571,0.051399999999999994
1996-05-07 23:00:00,6.21875,,6.21875,,6.21875,,0.004824120603015075,0.051399999999999994
1996-05-08 23:00:00,6.25,,6.25,,6.25,,0.0048,0.0513
1996-05-09 23:00:00,6.375,,6.375,,6.375,,0.004705882352941176,0.0513
1996-05-10 23:00:00,6.3125,,6.3125,,6.3125,,0.004752475247524752,0.0513
1996-05-13 23:00:00,6.25,,6.25,,6.25,,0.0048,0.0516
1996-05-14 23:00:00,6.15625,,6.15625,,6.15625,,0.004873096446700508,0.051399999999999994
1996-05-15 23:00:00,6.3125,,6.3125,,6.3125,,0.004752475247524752,0.0513
1996-05-16 23:00:00,6.28125,,6.28125,,6.28125,,0.004776119402985075,0.051500000000000004
1996-05-17 23:00:00,6.25,,6.25,,6.25,,0.0048,0.051500000000000004
1996-05-20 23:00:00,6.34375,,6.34375,,6.34375,,0.004729064039408867,0.051699999999999996
1996-05-21 23:00:00,6.4375,,6.4375,,6.4375,,0.004660194174757281,0.0518
1996-05-22 23:00:00,6.5,,6.5,,6.5,,0.004615384615384615,0.0518
1996-05-23 23:00:00,6.5625,,6.5625,,6.5625,,0.004571428571428571,0.0518
1996-05-24 23:00:00,6.5,,6.5,,6.5,,0.004615384615384615,0.0518
1996-05-28 23:00:00,6.4375,,6.4375,,6.4375,,0.004660194174757281,0.051699999999999996
1996-05-29 23:00:00,6.375,,6.375,,6.375,,0.004705882352941176,0.0518
1996-05-30 23:00:00,6.3125,,6.3125,,6.3125,,0.004752475247524752,0.0518
1996-05-31 23:00:00,6.3125,,6.3125,,6.3125,,0.004752475247524752,0.0518
1996-06-03 23:00:00,6.3125,,6.3125,,6.3125,,0.004752475247524752,0.052300000000000006
1996-06-04 23:00:00,6.375,,6.375,,6.375,,0.004705882352941176,0.052000000000000005
1996-06-05 23:00:00,6.4375,,6.4375,,6.4375,,0.004660194174757281,0.052199999999999996
1996-06-06 23:00:00,6.28125,,6.28125,,6.28125,,0.004776119402985075,0.0521
1996-06-07 23:00:00,6.34375,,6.34375,,6.34375,,0.004729064039408867,0.0526
1996-06-10 23:00:00,6.3125,,6.3125,,6.3125,,0.004752475247524752,0.0529
1996-06-11 23:00:00,6.3125,,6.3125,,6.3125,,0.004752475247524752,0.0527
1996-06-12 23:00:00,6.28125,,6.28125,,6.28125,,0.004776119402985075,0.0526
1996-06-13 23:00:00,6.1875,,6.1875,,6.1875,,0.0048484848484848485,0.0524
1996-06-14 23:00:00,6.15625,,6.15625,,6.15625,,0.004873096446700508,0.0521
1996-06-17 23:00:00,6.0625,,6.0625,,6.0625,,0.004948453608247422,0.0519
1996-06-18 23:00:00,5.96875,,5.96875,,5.96875,,0.005026178010471204,0.0521
1996-06-19 23:00:00,6.0625,,6.0625,,6.0625,,0.004948453608247422,0.052300000000000006
1996-06-20 23:00:00,6.09375,,6.09375,,6.09375,,0.004923076923076923,0.0526
1996-06-21 23:00:00,6.0,,6.0,,6.0,,0.005,0.0526
1996-06-24 23:00:00,6.0,,6.0,,6.0,,0.005,0.052300000000000006
1996-06-25 23:00:00,6.15625,,6.15625,,6.15625,,0.004873096446700508,0.0524
1996-06-26 23:00:00,6.625,,6.625,,6.625,,0.004528301886792453,0.0524
1996-06-27 23:00:00,6.75,,6.75,,6.75,,0.0044444444444444444,0.052000000000000005
1996-06-28 23:00:00,6.96875,,6.96875,,6.96875,,0.004304932735426009,0.0518
1996-07-01 23:00:00,7.28125,,7.28125,,7.28125,,0.004120171673819742,0.0527
1996-07-02 23:00:00,7.21875,,7.21875,,7.21875,,0.004155844155844156,0.053200000000000004
1996-07-03 23:00:00,7.21875,,7.21875,,7.21875,,0.004155844155844156,0.0524
1996-07-05 23:00:00,7.28125,,7.28125,,7.28125,,0.004120171673819742,0.053099999999999994
1996-07-08 23:00:00,7.25,,7.25,,7.25,,0.004137931034482759,0.0535
1996-07-09 23:00:00,7.5,,7.5,,7.5,,0.004,0.053399999999999996
1996-07-10 23:00:00,7.5625,,7.5625,,7.5625,,0.003966942148760331,0.0529
1996-07-11 23:00:00,7.1875,,7.1875,,7.1875,,0.0041739130434782605,0.0526
1996-07-12 23:00:00,7.15625,,7.15625,,7.15625,,0.004192139737991266,0.0528
1996-07-15 23:00:00,7.125,,7.125,,7.125,,0.004210526315789474,0.053200000000000004
1996-07-16 23:00:00,6.65625,,6.65625,,6.65625,,0.004507042253521127,0.0527
1996-07-17 23:00:00,6.6875,,6.6875,,6.6875,,0.004485981308411215,0.0526
1996-07-18 23:00:00,6.71875,,6.71875,,6.71875,,0.004465116279069767,0.0525
1996-07-19 23:00:00,6.6875,,6.6875,,6.6875,,0.004485981308411215,0.0528
1996-07-22 23:00:00,6.59375,,6.59375,,6.59375,,0.004549763033175355,0.053
1996-07-23 23:00:00,6.8125,,6.8125,,6.8125,,0.004403669724770642,0.053
1996-07-24 23:00:00,6.625,,6.625,,6.625,,0.004528301886792453,0.053099999999999994
1996-07-25 23:00:00,6.375,,6.375,,6.375,,0.004705882352941176,0.0529
1996-07-26 23:00:00,6.53125,,6.53125,,6.53125,,0.004593301435406699,0.0529
1996-07-29 23:00:00,6.5,,6.5,,6.5,,0.004615384615384615,0.0537
1996-07-30 23:00:00,6.3125,,6.3125,,6.3125,,0.004752475247524752,0.053399999999999996
1996-07-31 23:00:00,6.25,,6.25,,6.25,,0.0048,0.053200000000000004
1996-08-01 23:00:00,6.3125,,6.3125,,6.3125,,0.004752475247524752,0.0525
1996-08-02 23:00:00,6.46875,,6.46875,,6.46875,,0.00463768115942029,0.0521
1996-08-05 23:00:00,6.59375,,6.59375,,6.59375,,0.004549763033175355,0.052000000000000005
1996-08-06 23:00:00,6.65625,,6.65625,,6.65625,,0.004507042253521127,0.0519
1996-08-07 23:00:00,6.84375,,6.84375,,6.84375,,0.004383561643835616,0.0518
1996-08-08 23:00:00,6.84375,,6.84375,,6.84375,,0.004383561643835616,0.051500000000000004
1996-08-09 23:00:00,6.71875,,6.71875,,6.71875,,0.004465116279069767,0.051500000000000004
1996-08-12 23:00:00,6.625,,6.625,,6.625,,0.004528301886792453,0.0518
1996-08-13 23:00:00,6.625,,6.625,,6.625,,0.004528301886792453,0.051699999999999996
1996-08-14 23:00:00,6.65625,,6.65625,,6.65625,,0.004507042253521127,0.0516
1996-08-15 23:00:00,6.75,,6.75,,6.75,,0.0044444444444444444,0.0519
1996-08-16 23:00:00,6.71875,,6.71875,,6.71875,,0.004465116279069767,0.0518
1996-08-19 23:00:00,6.78125,,6.78125,,6.78125,,0.004423963133640553,0.052000000000000005
1996-08-20 23:00:00,6.75,,6.75,,6.75,,0.0044444444444444444,0.0518
1996-08-21 23:00:00,6.65625,,6.65625,,6.65625,,0.004507042253521127,0.051399999999999994
1996-08-22 23:00:00,6.65625,,6.65625,,6.65625,,0.004507042253521127,0.051399999999999994
1996-08-23 23:00:00,6.625,,6.625,,6.625,,0.004528301886792453,0.051500000000000004
1996-08-26 23:00:00,6.65625,,6.65625,,6.65625,,0.004507042253521127,0.0521
1996-08-27 23:00:00,6.5,,6.5,,6.5,,0.004615384615384615,0.052000000000000005
1996-08-28 23:00:00,6.46875,,6.46875,,6.46875,,0.00463768115942029,0.052000000000000005
1996-08-29 23:00:00,6.46875,,6.46875,,6.46875,,0.00463768115942029,0.0524
1996-08-30 23:00:00,6.46875,,6.46875,,6.46875,,0.00463768115942029,0.0529
1996-09-03 23:00:00,6.5625,,6.5625,,6.5625,,0.004571428571428571,0.053200000000000004
1996-09-04 23:00:00,6.46875,,6.46875,,6.46875,,0.00463768115942029,0.053200000000000004
1996-09-05 23:00:00,6.4375,,6.4375,,6.4375,,0.004660194174757281,0.053399999999999996
1996-09-06 23:00:00,6.46875,,6.46875,,6.46875,,0.00463768115942029,0.0533
1996-09-09 23:00:00,6.5,,6.5,,6.5,,0.004615384615384615,0.0529
1996-09-10 23:00:00,6.46875,,6.46875,,6.46875,,0.00463768115942029,0.0529
1996-09-11 23:00:00,6.5625,,6.5625,,6.5625,,0.004571428571428571,0.053099999999999994
1996-09-12 23:00:00,6.3125,,6.3125,,6.3125,,0.004752475247524752,0.0528
1996-09-13 23:00:00,6.125,,6.125,,6.125,,0.004897959183673469,0.0521
1996-09-16 23:00:00,6.0625,,6.0625,,6.0625,,0.004948453608247422,0.052000000000000005
1996-09-17 23:00:00,5.875,,5.875,,5.875,,0.005106382978723404,0.053099999999999994
1996-09-18 23:00:00,6.0,,6.0,,6.0,,0.005,0.0528
1996-09-19 23:00:00,6.03125,,6.03125,,6.03125,,0.004974093264248704,0.0525
1996-09-20 23:00:00,6.03125,,6.03125,,6.03125,,0.004974093264248704,0.0529
1996-09-23 23:00:00,6.03125,,6.03125,,6.03125,,0.004974093264248704,0.053099999999999994
1996-09-24 23:00:00,5.90625,,5.90625,,5.90625,,0.005079365079365079,0.051699999999999996
1996-09-25 23:00:00,6.0,,6.0,,6.0,,0.005,0.0507
1996-09-26 23:00:00,6.125,,6.125,,6.125,,0.004897959183673469,0.05
1996-09-27 23:00:00,6.03125,,6.03125,,6.03125,,0.004974093264248704,0.0504
1996-09-30 23:00:00,6.21875,,6.21875,,6.21875,,0.004824120603015075,0.051399999999999994
1996-10-01 23:00:00,6.3125,,6.3125,,6.3125,,0.004752475247524752,0.051
1996-10-02 23:00:00,6.375,,6.375,,6.375,,0.004705882352941176,0.050300000000000004
1996-10-03 23:00:00,6.28125,,6.28125,,6.28125,,0.004776119402985075,0.0504
1996-10-04 23:00:00,6.28125,,6.28125,,6.28125,,0.004776119402985075,0.0501
1996-10-07 23:00:00,6.40625,,6.40625,,6.40625,,0.0046829268292682925,0.051100000000000007
1996-10-08 23:00:00,6.375,,6.375,,6.375,,0.004705882352941176,0.0512
1996-10-09 23:00:00,6.3125,,6.3125,,6.3125,,0.004752475247524752,0.0512
1996-10-10 23:00:00,6.0,,6.0,,6.0,,0.0062499999999999995,0.051500000000000004
1996-10-11 23:00:00,5.9375,,5.9375,,5.9375,,0.0050526315789473685,0.0513
1996-10-14 23:00:00,5.84375,,5.84375,,5.84375,,0.0051336898395721925,0.0513
1996-10-15 23:00:00,6.0,,6.0,,6.0,,0.005,0.051699999999999996
1996-10-16 23:00:00,6.09375,,6.09375,,6.09375,,0.004923076923076923,0.051399999999999994
1996-10-17 23:00:00,6.25,,6.25,,6.25,,0.0048,0.0512
1996-10-18 23:00:00,6.375,,6.375,,6.375,,0.004705882352941176,0.0512
1996-10-21 23:00:00,6.25,,6.25,,6.25,,0.0048,0.051399999999999994
1996-10-22 23:00:00,6.1875,,6.1875,,6.1875,,0.0048484848484848485,0.0516
1996-10-23 23:00:00,6.0,,6.0,,6.0,,0.005,0.0513
1996-10-24 23:00:00,6.0625,,6.0625,,6.0625,,0.004948453608247422,0.051399999999999994
1996-10-25 23:00:00,6.21875,,6.21875,,6.21875,,0.004824120603015075,0.051399999999999994
1996-10-28 23:00:00,6.09375,,6.09375,,6.09375,,0.004923076923076923,0.0519
1996-10-29 23:00:00,6.15625,,6.15625,,6.15625,,0.004873096446700508,0.051399999999999994
1996-10-30 23:00:00,6.375,,6.375,,6.375,,0.004705882352941176,0.051399999999999994
1996-10-31 23:00:00,6.4375,,6.4375,,6.4375,,0.004660194174757281,0.051699999999999996
1996-11-01 23:00:00,6.28125,,6.28125,,6.28125,,0.004776119402985075,0.051699999999999996
1996-11-04 23:00:00,6.1875,,6.1875,,6.1875,,0.0048484848484848485,0.0519
1996-11-05 23:00:00,6.21875,,6.21875,,6.21875,,0.004824120603015075,0.051699999999999996
1996-11-06 23:00:00,6.125,,6.125,,6.125,,0.004897959183673469,0.051699999999999996
1996-11-07 23:00:00,6.0,,6.0,,6.0,,0.005,0.0516
1996-11-08 23:00:00,6.15625,,6.15625,,6.15625,,0.004873096446700508,0.0518
1996-11-11 23:00:00,6.25,,6.25,,6.25,,0.0048,0.0518
1996-11-12 23:00:00,6.25,,6.25,,6.25,,0.0048,0.0518
1996-11-13 23:00:00,6.28125,,6.28125,,6.28125,,0.004776119402985075,0.051699999999999996
1996-11-14 23:00:00,6.3125,,6.3125,,6.3125,,0.004752475247524752,0.051699999999999996
1996-11-15 23:00:00,6.25,,6.25,,6.25,,0.0048,0.0516
1996-11-18 23:00:00,6.25,,6.25,,6.25,,0.0048,0.0518
1996-11-19 23:00:00,6.40625,,6.40625,,6.40625,,0.0046829268292682925,0.051699999999999996
1996-11-20 23:00:00,6.78125,,6.78125,,6.78125,,0.004423963133640553,0.051699999999999996
1996-11-21 23:00:00,6.625,,6.625,,6.625,,0.004528301886792453,0.0518
1996-11-22 23:00:00,6.96875,,6.96875,,6.96875,,0.004304932735426009,0.0518
1996-11-25 23:00:00,7.03125,,7.03125,,7.03125,,0.004266666666666667,0.0518
1996-11-26 23:00:00,6.875,,6.875,,6.875,,0.004363636363636364,0.0516
1996-11-27 23:00:00,6.6875,,6.6875,,6.6875,,0.004485981308411215,0.051500000000000004
1996-11-29 23:00:00,6.65625,,6.65625,,6.65625,,0.004507042253521127,0.0513
1996-12-02 23:00:00,6.5625,,6.5625,,6.5625,,0.004571428571428571,0.0508
1996-12-03 23:00:00,6.75,,6.75,,6.75,,0.0044444444444444444,0.050499999999999996
1996-12-04 23:00:00,6.5,,6.5,,6.5,,0.004615384615384615,0.050300000000000004
1996-12-05 23:00:00,6.625,,6.625,,6.625,,0.004528301886792453,0.0504
1996-12-06 23:00:00,6.46875,,6.46875,,6.46875,,0.00463768115942029,0.050300000000000004
1996-12-09 23:00:00,6.40625,,6.40625,,6.40625,,0.0046829268292682925,0.0496
1996-12-10 23:00:00,6.5,,6.5,,6.5,,0.004615384615384615,0.0496
1996-12-11 23:00:00,6.3125,,6.3125,,6.3125,,0.004752475247524752,0.0496
1996-12-12 23:00:00,6.25,,6.25,,6.25,,0.0048,0.049699999999999994
1996-12-13 23:00:00,6.25,,6.25,,6.25,,0.0048,0.0492
1996-12-16 23:00:00,6.34375,,6.34375,,6.34375,,0.004729064039408867,0.049699999999999994
1996-12-17 23:00:00,6.46875,,6.46875,,6.46875,,0.00463768115942029,0.05
1996-12-18 23:00:00,6.4375,,6.4375,,6.4375,,0.004660194174757281,0.050300000000000004
1996-12-19 23:00:00,6.4375,,6.4375,,6.4375,,0.004660194174757281,0.0501
1996-12-20 23:00:00,6.4375,,6.4375,,6.4375,,0.004660194174757281,0.050199999999999995
1996-12-23 23:00:00,6.46875,,6.46875,,6.46875,,0.00463768115942029,0.051
1996-12-24 23:00:00,6.46875,,6.46875,,6.46875,,0.00463768115942029,0.0509
1996-12-26 23:00:00,6.46875,,6.46875,,6.46875,,0.00463768115942029,0.051
1996-12-27 23:00:00,6.625,,6.625,,6.625,,0.004528301886792453,0.051100000000000007
1996-12-30 23:00:00,6.5625,,6.5625,,6.5625,,0.004571428571428571,0.0521
1996-12-31 23:00:00,6.3125,,6.3125,,6.3125,,0.004752475247524752,0.0521
1997-01-02 23:00:00,6.15625,,6.15625,,6.15625,,0.004873096446700508,0.0519
1997-01-03 23:00:00,6.25,,6.25,,6.25,,0.0048,0.051699999999999996
1997-01-06 23:00:00,6.3125,,6.3125,,6.3125,,0.004752475247524752,0.051699999999999996
1997-01-07 23:00:00,6.375,,6.375,,6.375,,0.004705882352941176,0.0516
1997-01-08 23:00:00,6.34375,,6.34375,,6.34375,,0.004729064039408867,0.0516
1997-01-09 23:00:00,6.4375,,6.4375,,6.4375,,0.004660194174757281,0.0513
1997-01-10 23:00:00,6.65625,,6.65625,,6.65625,,0.003380281690140845,0.051699999999999996
1997-01-13 23:00:00,6.625,,6.625,,6.625,,0.004528301886792453,0.0508
1997-01-14 23:00:00,6.5625,,6.5625,,6.5625,,0.004571428571428571,0.0519
1997-01-15 23:00:00,6.59375,,6.59375,,6.59375,,0.004549763033175355,0.0516
1997-01-16 23:00:00,6.625,,6.625,,6.625,,0.004528301886792453,0.0516
1997-01-17 23:00:00,6.5625,,6.5625,,6.5625,,0.004571428571428571,0.051399999999999994
1997-01-20 23:00:00,6.21875,,6.21875,,6.21875,,0.004824120603015075,0.051399999999999994
1997-01-21 23:00:00,6.125,,6.125,,6.125,,0.004897959183673469,0.0518
1997-01-22 23:00:00,6.03125,,6.03125,,6.03125,,0.004974093264248704,0.0518
1997-01-23 23:00:00,5.9375,,5.9375,,5.9375,,0.0050526315789473685,0.0518
1997-01-24 23:00:00,5.90625,,5.90625,,5.90625,,0.005079365079365079,0.0516
1997-01-27 23:00:00,5.875,,5.875,,5.875,,0.005106382978723404,0.0521
1997-01-28 23:00:00,5.875,,5.875,,5.875,,0.005106382978723404,0.0518
1997-01-29 23:00:00,5.75,,5.75,,5.75,,0.005217391304347826,0.0518
1997-01-30 23:00:00,5.84375,,5.84375,,5.84375,,0.0051336898395721925,0.0518
1997-01-31 23:00:00,5.8125,,5.8125,,5.8125,,0.005161290322580645,0.051500000000000004
1997-02-03 23:00:00,5.71875,,5.71875,,5.71875,,0.005245901639344262,0.0512
1997-02-04 23:00:00,5.5,,5.5,,5.5,,0.005454545454545454,0.051
1997-02-05 23:00:00,5.65625,,5.65625,,5.65625,,0.005303867403314917,0.0513
1997-02-06 23:00:00,5.5625,,5.5625,,5.5625,,0.005393258426966292,0.051399999999999994
1997-02-07 23:00:00,5.3125,,5.3125,,5.3125,,0.005647058823529411,0.051399999999999994
1997-02-10 23:00:00,5.03125,,5.03125,,5.03125,,0.005962732919254658,0.051699999999999996
1997-02-11 23:00:00,5.1875,,5.1875,,5.1875,,0.005783132530120482,0.051399999999999994
1997-02-12 23:00:00,5.28125,,5.28125,,5.28125,,0.005680473372781065,0.0516
1997-02-13 23:00:00,5.28125,,5.28125,,5.28125,,0.005680473372781065,0.0513
1997-02-14 23:00:00,5.25,,5.25,,5.25,,0.005714285714285714,0.051
1997-02-18 23:00:00,5.28125,,5.28125,,5.28125,,0.005680473372781065,0.0512
1997-02-19 23:00:00,5.28125,,5.28125,,5.28125,,0.005680473372781065,0.051100000000000007
1997-02-20 23:00:00,5.15625,,5.15625,,5.15625,,0.005818181818181818,0.051
1997-02-21 23:00:00,5.25,,5.25,,5.25,,0.005714285714285714,0.0509
1997-02-24 23:00:00,5.1875,,5.1875,,5.1875,,0.005783132530120482,0.0516
1997-02-25 23:00:00,5.09375,,5.09375,,5.09375,,0.005889570552147239,0.0513
1997-02-26 23:00:00,5.0625,,5.0625,,5.0625,,0.005925925925925926,0.052199999999999996
1997-02-27 23:00:00,5.03125,,5.03125,,5.03125,,0.005962732919254658,0.052199999999999996
1997-02-28 23:00:00,5.0625,,5.0625,,5.0625,,0.005925925925925926,0.052199999999999996
1997-03-03 23:00:00,5.03125,,5.03125,,5.03125,,0.005962732919254658,0.0524
1997-03-04 23:00:00,5.1875,,5.1875,,5.1875,,0.005783132530120482,0.0525
1997-03-05 23:00:00,5.21875,,5.21875,,5.21875,,0.005748502994011976,0.0521
1997-03-06 23:00:00,5.34375,,5.34375,,5.34375,,0.005614035087719298,0.052300000000000006
1997-03-07 23:00:00,5.28125,,5.28125,,5.28125,,0.005680473372781065,0.052199999999999996
1997-03-10 23:00:00,5.40625,,5.40625,,5.40625,,0.0055491329479768784,0.052000000000000005
1997-03-11 23:00:00,5.25,,5.25,,5.25,,0.005714285714285714,0.0518
1997-03-12 23:00:00,5.15625,,5.15625,,5.15625,,0.005818181818181818,0.0521
1997-03-13 23:00:00,5.21875,,5.21875,,5.21875,,0.005748502994011976,0.0526
1997-03-14 23:00:00,5.25,,5.25,,5.25,,0.005714285714285714,0.0524
1997-03-17 23:00:00,5.21875,,5.21875,,5.21875,,0.005748502994011976,0.0525
1997-03-18 23:00:00,5.25,,5.25,,5.25,,0.005714285714285714,0.0525
1997-03-19 23:00:00,5.28125,,5.28125,,5.28125,,0.005680473372781065,0.0529
1997-03-20 23:00:00,5.3125,,5.3125,,5.3125,,0.005647058823529411,0.053399999999999996
1997-03-21 23:00:00,5.28125,,5.28125,,5.28125,,0.005680473372781065,0.0541
1997-03-24 23:00:00,5.25,,5.25,,5.25,,0.005714285714285714,0.054000000000000006
1997-03-25 23:00:00,5.1875,,5.1875,,5.1875,,0.005783132530120482,0.054400000000000004
1997-03-26 23:00:00,5.28125,,5.28125,,5.28125,,0.005680473372781065,0.0535
1997-03-27 23:00:00,5.21875,,5.21875,,5.21875,,0.005748502994011976,0.0537
1997-03-31 23:00:00,5.1875,,5.1875,,5.1875,,0.005783132530120482,0.0535
1997-04-01 23:00:00,5.25,,5.25,,5.25,,0.005714285714285714,0.053200000000000004
1997-04-02 23:00:00,4.90625,,4.90625,,4.90625,,0.006114649681528662,0.053
1997-04-03 23:00:00,4.90625,,4.90625,,4.90625,,0.006114649681528662,0.0527
1997-04-04 23:00:00,4.8125,,4.8125,,4.8125,,0.006233766233766234,0.0529
1997-04-07 23:00:00,4.65625,,4.65625,,4.65625,,0.006442953020134228,0.0526
1997-04-08 23:00:00,4.59375,,4.59375,,4.59375,,0.0065306122448979586,0.0525
1997-04-09 23:00:00,4.71875,,4.71875,,4.71875,,0.006357615894039735,0.0524
1997-04-10 23:00:00,4.53125,,4.53125,,4.53125,,0.006620689655172414,0.0529
1997-04-11 23:00:00,4.375,,4.375,,4.375,,0.006857142857142857,0.053099999999999994
1997-04-14 23:00:00,4.53125,,4.53125,,4.53125,,0.006620689655172414,0.053
1997-04-15 23:00:00,4.5625,,4.5625,,4.5625,,0.006575342465753424,0.053099999999999994
1997-04-16 23:00:00,4.65625,,4.65625,,4.65625,,0.006442953020134228,0.0529
1997-04-17 23:00:00,4.625,,4.625,,4.625,,0.006486486486486486,0.0529
1997-04-18 23:00:00,4.59375,,4.59375,,4.59375,,0.0065306122448979586,0.0529
1997-04-21 23:00:00,4.65625,,4.65625,,4.65625,,0.006442953020134228,0.0536
1997-04-22 23:00:00,4.78125,,4.78125,,4.78125,,0.006274509803921568,0.0536
1997-04-23 23:00:00,4.71875,,4.71875,,4.71875,,0.006357615894039735,0.0537
1997-04-24 23:00:00,4.6875,,4.6875,,4.6875,,0.0063999999999999994,0.053200000000000004
1997-04-25 23:00:00,4.625,,4.625,,4.625,,0.006486486486486486,0.053099999999999994
1997-04-28 23:00:00,4.5,,4.5,,4.5,,0.006666666666666666,0.0535
1997-04-29 23:00:00,4.75,,4.75,,4.75,,0.00631578947368421,0.053399999999999996
1997-04-30 23:00:00,4.65625,,4.65625,,4.65625,,0.006442953020134228,0.0528
1997-05-01 23:00:00,4.6875,,4.6875,,4.6875,,0.0063999999999999994,0.0524
1997-05-02 23:00:00,4.8125,,4.8125,,4.8125,,0.006233766233766234,0.0524
1997-05-05 23:00:00,4.90625,,4.90625,,4.90625,,0.006114649681528662,0.052199999999999996
1997-05-06 23:00:00,4.84375,,4.84375,,4.84375,,0.006193548387096774,0.0521
1997-05-07 23:00:00,5.03125,,5.03125,,5.03125,,0.005962732919254658,0.052199999999999996
1997-05-08 23:00:00,5.1875,,5.1875,,5.1875,,0.005783132530120482,0.0521
1997-05-09 23:00:00,5.15625,,5.15625,,5.15625,,0.005818181818181818,0.0519
1997-05-12 23:00:00,5.40625,,5.40625,,5.40625,,0.0055491329479768784,0.0524
1997-05-13 23:00:00,5.21875,,5.21875,,5.21875,,0.005748502994011976,0.0524
1997-05-14 23:00:00,5.25,,5.25,,5.25,,0.005714285714285714,0.0519
1997-05-15 23:00:00,5.1875,,5.1875,,5.1875,,0.005783132530120482,0.0513
1997-05-16 23:00:00,5.15625,,5.15625,,5.15625,,0.005818181818181818,0.052000000000000005
1997-05-19 23:00:00,5.1875,,5.1875,,5.1875,,0.005783132530120482,0.0538
1997-05-20 23:00:00,5.1875,,5.1875,,5.1875,,0.005783132530120482,0.053899999999999997
1997-05-21 23:00:00,5.1875,,5.1875,,5.1875,,0.005783132530120482,0.0512
1997-05-22 23:00:00,5.3125,,5.3125,,5.3125,,0.005647058823529411,0.0518
1997-05-23 23:00:00,5.28125,,5.28125,,5.28125,,0.005680473372781065,0.0518
