DATETIME,CARRY,CARRY_CONTRACT,PRICE,PRICE_CONTRACT,FORWARD,FORWARD_CONTRACT,DIVIDEND_YIELD,FUNDING_COST
1981-08-26 23:00:00,2.867187976837158,,2.867187976837158,,2.867187976837158,,0.0,0.17010000000000003
1981-08-27 23:00:00,2.867187976837158,,2.867187976837158,,2.867187976837158,,0.0,0.17010000000000003
1981-08-28 23:00:00,2.867187976837158,,2.867187976837158,,2.867187976837158,,0.0,0.17010000000000003
1981-08-31 23:00:00,2.859375,,2.859375,,2.859375,,0.0,0.17010000000000003
1981-09-01 23:00:00,2.867187976837158,,2.867187976837158,,2.867187976837158,,0.0,0.17010000000000003
1981-09-02 23:00:00,2.882812976837158,,2.882812976837158,,2.882812976837158,,0.0,0.16649999999999998
1981-09-03 23:00:00,2.859375,,2.859375,,2.859375,,0.0,0.1696
1981-09-04 23:00:00,2.8125,,2.8125,,2.8125,,0.0,0.1664
1981-09-08 23:00:00,2.695312976837158,,2.695312976837158,,2.695312976837158,,0.0,0.1654
1981-09-09 23:00:00,2.6875,,2.6875,,2.6875,,0.0,0.16390000000000002
1981-09-10 23:00:00,2.726562976837158,,2.726562976837158,,2.726562976837158,,0.0,0.159
1981-09-11 23:00:00,2.703125,,2.703125,,2.703125,,0.0,0.1576
1981-09-14 23:00:00,2.710937976837158,,2.710937976837158,,2.710937976837158,,0.0,0.1527
1981-09-15 23:00:00,2.703125,,2.703125,,2.703125,,0.0,0.1516
1981-09-16 23:00:00,2.734375,,2.734375,,2.734375,,0.0,0.151
1981-09-17 23:00:00,2.710937976837158,,2.710937976837158,,2.710937976837158,,0.0,0.1518
1981-09-18 23:00:00,2.640625,,2.640625,,2.640625,,0.0,0.1507
1981-09-21 23:00:00,2.648437976837158,,2.648437976837158,,2.648437976837158,,0.0,0.14980000000000002
1981-09-22 23:00:00,2.648437976837158,,2.648437976837158,,2.648437976837158,,0.0,0.1551
1981-09-23 23:00:00,2.609375,,2.609375,,2.609375,,0.0,0.1494
1981-09-24 23:00:00,2.59375,,2.59375,,2.59375,,0.0,0.1494
1981-09-25 23:00:00,2.46875,,2.46875,,2.46875,,0.0,0.1502
1981-09-28 23:00:00,2.546875,,2.546875,,2.546875,,0.0,0.1482
1981-09-29 23:00:00,2.5625,,2.5625,,2.5625,,0.0,0.14859999999999998
1981-09-30 23:00:00,2.515625,,2.515625,,2.515625,,0.0,0.1505
1981-10-01 23:00:00,2.492187976837158,,2.492187976837158,,2.492187976837158,,0.0,0.1533
1981-10-02 23:00:00,2.523437976837158,,2.523437976837158,,2.523437976837158,,0.0,0.154
1981-10-05 23:00:00,2.492187976837158,,2.492187976837158,,2.492187976837158,,0.0,0.14980000000000002
1981-10-06 23:00:00,2.4375,,2.4375,,2.4375,,0.0,0.1461
1981-10-07 23:00:00,2.421875,,2.421875,,2.421875,,0.0,0.1454
1981-10-08 23:00:00,2.453125,,2.453125,,2.453125,,0.0,0.1438
1981-10-09 23:00:00,2.4375,,2.4375,,2.4375,,0.0,0.1396
1981-10-12 23:00:00,2.4375,,2.4375,,2.4375,,0.0,0.1396
1981-10-13 23:00:00,2.429687976837158,,2.429687976837158,,2.429687976837158,,0.0,0.1417
1981-10-14 23:00:00,2.421875,,2.421875,,2.421875,,0.0,0.13970000000000002
1981-10-15 23:00:00,2.429687976837158,,2.429687976837158,,2.429687976837158,,0.0,0.14
1981-10-16 23:00:00,2.429687976837158,,2.429687976837158,,2.429687976837158,,0.0,0.1418
1981-10-19 23:00:00,2.445312976837158,,2.445312976837158,,2.445312976837158,,0.0,0.142
1981-10-20 23:00:00,2.390625,,2.390625,,2.390625,,0.0,0.1413
1981-10-21 23:00:00,2.390625,,2.390625,,2.390625,,0.0,0.1417
1981-10-22 23:00:00,2.34375,,2.34375,,2.34375,,0.0,0.1398
1981-10-23 23:00:00,2.296875,,2.296875,,2.296875,,0.0,0.1387
1981-10-26 23:00:00,2.304687976837158,,2.304687976837158,,2.304687976837158,,0.0,0.1396
1981-10-27 23:00:00,2.351562976837158,,2.351562976837158,,2.351562976837158,,0.0,0.1402
1981-10-28 23:00:00,2.382812976837158,,2.382812976837158,,2.382812976837158,,0.0,0.1393
1981-10-29 23:00:00,2.359375,,2.359375,,2.359375,,0.0,0.1374
1981-10-30 23:00:00,2.390625,,2.390625,,2.390625,,0.0,0.1333
1981-11-02 23:00:00,2.4375,,2.4375,,2.4375,,0.0,0.1334
1981-11-03 23:00:00,2.53125,,2.53125,,2.53125,,0.0,0.1334
1981-11-04 23:00:00,2.507812976837158,,2.507812976837158,,2.507812976837158,,0.0,0.12869999999999998
1981-11-05 23:00:00,2.546875,,2.546875,,2.546875,,0.0,0.1273
1981-11-06 23:00:00,2.5625,,2.5625,,2.5625,,0.0,0.12210000000000001
1981-11-09 23:00:00,2.570312976837158,,2.570312976837158,,2.570312976837158,,0.0,0.11720000000000001
1981-11-10 23:00:00,2.59375,,2.59375,,2.59375,,0.0,0.1174
1981-11-11 23:00:00,2.617187976837158,,2.617187976837158,,2.617187976837158,,0.0,0.1174
1981-11-12 23:00:00,2.609375,,2.609375,,2.609375,,0.0,0.1107
1981-11-13 23:00:00,2.554687976837158,,2.554687976837158,,2.554687976837158,,0.0,0.11320000000000001
1981-11-16 23:00:00,2.476562976837158,,2.476562976837158,,2.476562976837158,,0.0,0.11109999999999999
1981-11-17 23:00:00,2.492187976837158,,2.492187976837158,,2.492187976837158,,0.0,0.1108
1981-11-18 23:00:00,2.46875,,2.46875,,2.46875,,0.0,0.10460000000000001
1981-11-19 23:00:00,2.476562976837158,,2.476562976837158,,2.476562976837158,,0.0,0.1063
1981-11-20 23:00:00,2.5,,2.5,,2.5,,0.0,0.1051
1981-11-23 23:00:00,2.460937976837158,,2.460937976837158,,2.460937976837158,,0.0,0.1091
1981-11-24 23:00:00,2.460937976837158,,2.460937976837158,,2.460937976837158,,0.0,0.106
1981-11-25 23:00:00,2.453125,,2.453125,,2.453125,,0.0,0.1056
1981-11-27 23:00:00,2.476562976837158,,2.476562976837158,,2.476562976837158,,0.0,0.1058
1981-11-30 23:00:00,2.515625,,2.515625,,2.515625,,0.0,0.10779999999999999
1981-12-01 23:00:00,2.484375,,2.484375,,2.484375,,0.0,0.1081
1981-12-02 23:00:00,2.484375,,2.484375,,2.484375,,0.0,0.1082
1981-12-03 23:00:00,2.515625,,2.515625,,2.515625,,0.0,0.10949999999999999
1981-12-04 23:00:00,2.515625,,2.515625,,2.515625,,0.0,0.10289999999999999
1981-12-07 23:00:00,2.492187976837158,,2.492187976837158,,2.492187976837158,,0.0,0.1066
1981-12-08 23:00:00,2.46875,,2.46875,,2.46875,,0.0,0.10679999999999999
1981-12-09 23:00:00,2.484375,,2.484375,,2.484375,,0.0,0.10679999999999999
1981-12-10 23:00:00,2.492187976837158,,2.492187976837158,,2.492187976837158,,0.0,0.11130000000000001
1981-12-11 23:00:00,2.515625,,2.515625,,2.515625,,0.0,0.1133
1981-12-14 23:00:00,2.453125,,2.453125,,2.453125,,0.0,0.114
1981-12-15 23:00:00,2.445312976837158,,2.445312976837158,,2.445312976837158,,0.0,0.11349999999999999
1981-12-16 23:00:00,2.445312976837158,,2.445312976837158,,2.445312976837158,,0.0,0.11380000000000001
1981-12-17 23:00:00,2.4375,,2.4375,,2.4375,,0.0,0.1162
1981-12-18 23:00:00,2.421875,,2.421875,,2.421875,,0.0,0.1133
1981-12-21 23:00:00,2.375,,2.375,,2.375,,0.0,0.11560000000000001
1981-12-22 23:00:00,2.375,,2.375,,2.375,,0.0,0.1151
1981-12-23 23:00:00,2.375,,2.375,,2.375,,0.0,0.11939999999999999
1981-12-24 23:00:00,2.382812976837158,,2.382812976837158,,2.382812976837158,,0.0,0.1157
1981-12-28 23:00:00,2.3125,,2.3125,,2.3125,,0.0,0.1175
1981-12-29 23:00:00,2.3125,,2.3125,,2.3125,,0.0,0.1222
1981-12-30 23:00:00,2.328125,,2.328125,,2.328125,,0.0,0.1186
1981-12-31 23:00:00,2.359375,,2.359375,,2.359375,,0.0,0.11539999999999999
1982-01-04 23:00:00,2.367187976837158,,2.367187976837158,,2.367187976837158,,0.0,0.11869999999999999
1982-01-05 23:00:00,2.328125,,2.328125,,2.328125,,0.0,0.122
1982-01-06 23:00:00,2.328125,,2.328125,,2.328125,,0.0,0.1216
1982-01-07 23:00:00,2.296875,,2.296875,,2.296875,,0.0,0.1217
1982-01-08 23:00:00,2.265625,,2.265625,,2.265625,,0.0,0.1198
1982-01-11 23:00:00,2.1875,,2.1875,,2.1875,,0.0,0.1249
1982-01-12 23:00:00,2.203125,,2.203125,,2.203125,,0.0,0.1252
1982-01-13 23:00:00,2.1875,,2.1875,,2.1875,,0.0,0.127
1982-01-14 23:00:00,2.179687976837158,,2.179687976837158,,2.179687976837158,,0.0,0.1317
1982-01-15 23:00:00,2.15625,,2.15625,,2.15625,,0.0,0.1274
1982-01-18 23:00:00,2.0625,,2.0625,,2.0625,,0.0,0.1341
1982-01-19 23:00:00,2.054687976837158,,2.054687976837158,,2.054687976837158,,0.0,0.1313
1982-01-20 23:00:00,2.046875,,2.046875,,2.046875,,0.0,0.1351
1982-01-21 23:00:00,2.046875,,2.046875,,2.046875,,0.0,0.1365
1982-01-22 23:00:00,2.03125,,2.03125,,2.03125,,0.0,0.1363
1982-01-25 23:00:00,2.015625,,2.015625,,2.015625,,0.0,0.1406
1982-01-26 23:00:00,2.0,,2.0,,2.0,,0.0,0.1365
1982-01-27 23:00:00,2.007812976837158,,2.007812976837158,,2.007812976837158,,0.0,0.134
1982-01-28 23:00:00,2.039062976837158,,2.039062976837158,,2.039062976837158,,0.0,0.1284
1982-01-29 23:00:00,2.085937976837158,,2.085937976837158,,2.085937976837158,,0.0,0.1308
1982-02-01 23:00:00,2.046875,,2.046875,,2.046875,,0.0,0.1477
1982-02-02 23:00:00,2.0625,,2.0625,,2.0625,,0.0,0.1449
1982-02-03 23:00:00,2.070312976837158,,2.070312976837158,,2.070312976837158,,0.0,0.1464
1982-02-04 23:00:00,2.078125,,2.078125,,2.078125,,0.0,0.1438
1982-02-05 23:00:00,2.148437976837158,,2.148437976837158,,2.148437976837158,,0.0,0.1463
1982-02-08 23:00:00,2.078125,,2.078125,,2.078125,,0.0,0.15039999999999998
1982-02-09 23:00:00,2.039062976837158,,2.039062976837158,,2.039062976837158,,0.0,0.1491
1982-02-10 23:00:00,2.039062976837158,,2.039062976837158,,2.039062976837158,,0.0,0.14880000000000002
1982-02-11 23:00:00,1.953125,,1.953125,,1.953125,,0.0,0.1506
1982-02-12 23:00:00,1.9765629768371582,,1.9765629768371582,,1.9765629768371582,,0.0,0.1506
1982-02-16 23:00:00,1.984375,,1.984375,,1.984375,,0.0,0.1549
1982-02-17 23:00:00,1.9765629768371582,,1.9765629768371582,,1.9765629768371582,,0.0,0.1531
1982-02-18 23:00:00,1.9765629768371582,,1.9765629768371582,,1.9765629768371582,,0.0,0.1458
1982-02-19 23:00:00,1.96875,,1.96875,,1.96875,,0.0,0.1417
1982-02-22 23:00:00,1.9453129768371582,,1.9453129768371582,,1.9453129768371582,,0.0,0.1313
1982-02-23 23:00:00,1.9609379768371582,,1.9609379768371582,,1.9609379768371582,,0.0,0.1293
1982-02-24 23:00:00,1.953125,,1.953125,,1.953125,,0.0,0.1283
1982-02-25 23:00:00,1.953125,,1.953125,,1.953125,,0.0,0.12789999999999999
1982-02-26 23:00:00,1.9609379768371582,,1.9609379768371582,,1.9609379768371582,,0.0,0.13
1982-03-01 23:00:00,1.9375,,1.9375,,1.9375,,0.0,0.1281
1982-03-02 23:00:00,1.9296879768371582,,1.9296879768371582,,1.9296879768371582,,0.0,0.1322
1982-03-03 23:00:00,1.90625,,1.90625,,1.90625,,0.0,0.1285
1982-03-04 23:00:00,1.890625,,1.890625,,1.890625,,0.0,0.1285
1982-03-05 23:00:00,1.875,,1.875,,1.875,,0.0,0.1286
1982-03-08 23:00:00,1.84375,,1.84375,,1.84375,,0.0,0.1268
1982-03-09 23:00:00,1.828125,,1.828125,,1.828125,,0.0,0.1293
1982-03-10 23:00:00,1.859375,,1.859375,,1.859375,,0.0,0.13
1982-03-11 23:00:00,1.9375,,1.9375,,1.9375,,0.0,0.1324
1982-03-12 23:00:00,1.9609379768371582,,1.9609379768371582,,1.9609379768371582,,0.0,0.134
1982-03-15 23:00:00,1.9921879768371582,,1.9921879768371582,,1.9921879768371582,,0.0,0.13470000000000001
1982-03-16 23:00:00,2.007812976837158,,2.007812976837158,,2.007812976837158,,0.0,0.1333
1982-03-17 23:00:00,2.0,,2.0,,2.0,,0.0,0.1336
1982-03-18 23:00:00,1.96875,,1.96875,,1.96875,,0.0,0.13449999999999998
1982-03-19 23:00:00,1.96875,,1.96875,,1.96875,,0.0,0.1369
1982-03-22 23:00:00,1.9609379768371582,,1.9609379768371582,,1.9609379768371582,,0.0,0.1326
1982-03-23 23:00:00,1.9921879768371582,,1.9921879768371582,,1.9921879768371582,,0.0,0.1311
1982-03-24 23:00:00,2.015625,,2.015625,,2.015625,,0.0,0.13390000000000002
1982-03-25 23:00:00,1.9921879768371582,,1.9921879768371582,,1.9921879768371582,,0.0,0.1335
1982-03-26 23:00:00,1.9609379768371582,,1.9609379768371582,,1.9609379768371582,,0.0,0.1369
1982-03-29 23:00:00,1.984375,,1.984375,,1.984375,,0.0,0.1416
1982-03-30 23:00:00,1.9921879768371582,,1.9921879768371582,,1.9921879768371582,,0.0,0.14150000000000001
1982-03-31 23:00:00,1.9765629768371582,,1.9765629768371582,,1.9765629768371582,,0.0,0.1399
1982-04-01 23:00:00,2.0,,2.0,,2.0,,0.0,0.1387
1982-04-02 23:00:00,2.007812976837158,,2.007812976837158,,2.007812976837158,,0.0,0.13949999999999999
1982-04-05 23:00:00,2.007812976837158,,2.007812976837158,,2.007812976837158,,0.0,0.1376
1982-04-06 23:00:00,2.015625,,2.015625,,2.015625,,0.0,0.1377
1982-04-07 23:00:00,2.03125,,2.03125,,2.03125,,0.0,0.138
1982-04-08 23:00:00,2.023437976837158,,2.023437976837158,,2.023437976837158,,0.0,0.1374
1982-04-12 23:00:00,2.023437976837158,,2.023437976837158,,2.023437976837158,,0.0,0.1343
1982-04-13 23:00:00,2.039062976837158,,2.039062976837158,,2.039062976837158,,0.0,0.1333
1982-04-14 23:00:00,2.054687976837158,,2.054687976837158,,2.054687976837158,,0.0,0.1344
1982-04-15 23:00:00,2.007812976837158,,2.007812976837158,,2.007812976837158,,0.0,0.13470000000000001
1982-04-16 23:00:00,2.0,,2.0,,2.0,,0.0,0.1321
1982-04-19 23:00:00,2.015625,,2.015625,,2.015625,,0.0,0.1304
1982-04-20 23:00:00,2.015625,,2.015625,,2.015625,,0.0,0.1307
1982-04-21 23:00:00,2.015625,,2.015625,,2.015625,,0.0,0.1273
1982-04-22 23:00:00,2.015625,,2.015625,,2.015625,,0.0,0.12990000000000002
1982-04-23 23:00:00,2.054687976837158,,2.054687976837158,,2.054687976837158,,0.0,0.12990000000000002
1982-04-26 23:00:00,2.117187976837158,,2.117187976837158,,2.117187976837158,,0.0,0.1317
1982-04-27 23:00:00,2.117187976837158,,2.117187976837158,,2.117187976837158,,0.0,0.1304
1982-04-28 23:00:00,2.125,,2.125,,2.125,,0.0,0.1309
1982-04-29 23:00:00,2.085937976837158,,2.085937976837158,,2.085937976837158,,0.0,0.132
1982-04-30 23:00:00,2.132812976837158,,2.132812976837158,,2.132812976837158,,0.0,0.1315
1982-05-03 23:00:00,2.15625,,2.15625,,2.15625,,0.0,0.1346
1982-05-04 23:00:00,2.117187976837158,,2.117187976837158,,2.117187976837158,,0.0,0.136
1982-05-05 23:00:00,2.117187976837158,,2.117187976837158,,2.117187976837158,,0.0,0.13390000000000002
1982-05-06 23:00:00,2.109375,,2.109375,,2.109375,,0.0,0.1308
1982-05-07 23:00:00,2.109375,,2.109375,,2.109375,,0.0,0.13019999999999998
1982-05-10 23:00:00,2.101562976837158,,2.101562976837158,,2.101562976837158,,0.0,0.1321
1982-05-11 23:00:00,2.132812976837158,,2.132812976837158,,2.132812976837158,,0.0,0.1297
1982-05-12 23:00:00,2.140625,,2.140625,,2.140625,,0.0,0.1305
1982-05-13 23:00:00,2.078125,,2.078125,,2.078125,,0.0,0.1309
1982-05-14 23:00:00,2.109375,,2.109375,,2.109375,,0.0,0.1292
1982-05-17 23:00:00,2.109375,,2.109375,,2.109375,,0.0,0.13019999999999998
1982-05-18 23:00:00,2.109375,,2.109375,,2.109375,,0.0,0.1288
1982-05-19 23:00:00,2.125,,2.125,,2.125,,0.0,0.1247
1982-05-20 23:00:00,2.140625,,2.140625,,2.140625,,0.0,0.12
1982-05-21 23:00:00,2.125,,2.125,,2.125,,0.0,0.1199
1982-05-24 23:00:00,2.101562976837158,,2.101562976837158,,2.101562976837158,,0.0,0.1199
1982-05-25 23:00:00,2.085937976837158,,2.085937976837158,,2.085937976837158,,0.0,0.1207
1982-05-26 23:00:00,2.070312976837158,,2.070312976837158,,2.070312976837158,,0.0,0.1204
1982-05-27 23:00:00,2.070312976837158,,2.070312976837158,,2.070312976837158,,0.0,0.1206
1982-05-28 23:00:00,2.078125,,2.078125,,2.078125,,0.0,0.1197
1982-06-01 23:00:00,1.984375,,1.984375,,1.984375,,0.0,0.1255
1982-06-02 23:00:00,2.03125,,2.03125,,2.03125,,0.0,0.12689999999999999
1982-06-03 23:00:00,2.015625,,2.015625,,2.015625,,0.0,0.1263
1982-06-04 23:00:00,1.9375,,1.9375,,1.9375,,0.0,0.1278
1982-06-07 23:00:00,1.921875,,1.921875,,1.921875,,0.0,0.12710000000000002
1982-06-08 23:00:00,1.8984379768371582,,1.8984379768371582,,1.8984379768371582,,0.0,0.12789999999999999
1982-06-09 23:00:00,1.8359379768371582,,1.8359379768371582,,1.8359379768371582,,0.0,0.12619999999999998
1982-06-10 23:00:00,1.8671879768371582,,1.8671879768371582,,1.8671879768371582,,0.0,0.1252
1982-06-11 23:00:00,1.9140629768371582,,1.9140629768371582,,1.9140629768371582,,0.0,0.1255
1982-06-14 23:00:00,1.921875,,1.921875,,1.921875,,0.0,0.1288
1982-06-15 23:00:00,1.921875,,1.921875,,1.921875,,0.0,0.1293
1982-06-16 23:00:00,1.9375,,1.9375,,1.9375,,0.0,0.1303
1982-06-17 23:00:00,1.9296879768371582,,1.9296879768371582,,1.9296879768371582,,0.0,0.1315
1982-06-18 23:00:00,1.921875,,1.921875,,1.921875,,0.0,0.1331
1982-06-21 23:00:00,1.8984379768371582,,1.8984379768371582,,1.8984379768371582,,0.0,0.1311
1982-06-22 23:00:00,1.90625,,1.90625,,1.90625,,0.0,0.13369999999999999
1982-06-23 23:00:00,1.953125,,1.953125,,1.953125,,0.0,0.1367
1982-06-24 23:00:00,1.9609379768371582,,1.9609379768371582,,1.9609379768371582,,0.0,0.136
1982-06-25 23:00:00,1.9765629768371582,,1.9765629768371582,,1.9765629768371582,,0.0,0.1387
1982-06-28 23:00:00,2.0,,2.0,,2.0,,0.0,0.1381
1982-06-29 23:00:00,2.09375,,2.09375,,2.09375,,0.0,0.138
1982-06-30 23:00:00,2.078125,,2.078125,,2.078125,,0.0,0.1336
1982-07-01 23:00:00,2.085937976837158,,2.085937976837158,,2.085937976837158,,0.0,0.13140000000000002
1982-07-02 23:00:00,2.078125,,2.078125,,2.078125,,0.0,0.1336
1982-07-06 23:00:00,2.046875,,2.046875,,2.046875,,0.0,0.1318
1982-07-07 23:00:00,2.0,,2.0,,2.0,,0.0,0.1331
1982-07-08 23:00:00,2.039062976837158,,2.039062976837158,,2.039062976837158,,0.0,0.12480000000000001
1982-07-09 23:00:00,2.0625,,2.0625,,2.0625,,0.0,0.1229
1982-07-12 23:00:00,2.0625,,2.0625,,2.0625,,0.0,0.1222
1982-07-13 23:00:00,2.046875,,2.046875,,2.046875,,0.0,0.12480000000000001
1982-07-14 23:00:00,2.015625,,2.015625,,2.015625,,0.0,0.1253
1982-07-15 23:00:00,2.03125,,2.03125,,2.03125,,0.0,0.12140000000000001
1982-07-16 23:00:00,2.023437976837158,,2.023437976837158,,2.023437976837158,,0.0,0.1168
1982-07-19 23:00:00,2.046875,,2.046875,,2.046875,,0.0,0.1152
1982-07-20 23:00:00,2.085937976837158,,2.085937976837158,,2.085937976837158,,0.0,0.11109999999999999
1982-07-21 23:00:00,2.171875,,2.171875,,2.171875,,0.0,0.1119
1982-07-22 23:00:00,2.203125,,2.203125,,2.203125,,0.0,0.10830000000000001
1982-07-23 23:00:00,2.1875,,2.1875,,2.1875,,0.0,0.1073
1982-07-26 23:00:00,2.242187976837158,,2.242187976837158,,2.242187976837158,,0.0,0.10869999999999999
1982-07-27 23:00:00,2.226562976837158,,2.226562976837158,,2.226562976837158,,0.0,0.1112
1982-07-28 23:00:00,2.140625,,2.140625,,2.140625,,0.0,0.11410000000000001
1982-07-29 23:00:00,2.203125,,2.203125,,2.203125,,0.0,0.1097
1982-07-30 23:00:00,2.226562976837158,,2.226562976837158,,2.226562976837158,,0.0,0.1057
1982-08-02 23:00:00,2.273437976837158,,2.273437976837158,,2.273437976837158,,0.0,0.09720000000000001
1982-08-03 23:00:00,2.25,,2.25,,2.25,,0.0,0.1018
1982-08-04 23:00:00,2.148437976837158,,2.148437976837158,,2.148437976837158,,0.0,0.1012
1982-08-05 23:00:00,2.117187976837158,,2.117187976837158,,2.117187976837158,,0.0,0.10189999999999999
1982-08-06 23:00:00,2.03125,,2.03125,,2.03125,,0.0,0.10710000000000001
1982-08-09 23:00:00,2.054687976837158,,2.054687976837158,,2.054687976837158,,0.0,0.1025
1982-08-10 23:00:00,2.078125,,2.078125,,2.078125,,0.0,0.1042
1982-08-11 23:00:00,2.078125,,2.078125,,2.078125,,0.0,0.10369999999999999
1982-08-12 23:00:00,2.085937976837158,,2.085937976837158,,2.085937976837158,,0.0,0.0974
1982-08-13 23:00:00,2.109375,,2.109375,,2.109375,,0.0,0.096
1982-08-16 23:00:00,2.117187976837158,,2.117187976837158,,2.117187976837158,,0.0,0.0898
1982-08-17 23:00:00,2.179687976837158,,2.179687976837158,,2.179687976837158,,0.0,0.0833
1982-08-18 23:00:00,2.296875,,2.296875,,2.296875,,0.0,0.08349999999999999
1982-08-19 23:00:00,2.3125,,2.3125,,2.3125,,0.0,0.0776
1982-08-20 23:00:00,2.4375,,2.4375,,2.4375,,0.0,0.0731
1982-08-23 23:00:00,2.421875,,2.421875,,2.421875,,0.0,0.0775
1982-08-24 23:00:00,2.40625,,2.40625,,2.40625,,0.0,0.0786
1982-08-25 23:00:00,2.4375,,2.4375,,2.4375,,0.0,0.0767
1982-08-26 23:00:00,2.445312976837158,,2.445312976837158,,2.445312976837158,,0.0,0.0737
1982-08-27 23:00:00,2.40625,,2.40625,,2.40625,,0.0,0.081
1982-08-30 23:00:00,2.515625,,2.515625,,2.515625,,0.0,0.08439999999999999
1982-08-31 23:00:00,2.53125,,2.53125,,2.53125,,0.0,0.0872
1982-09-01 23:00:00,2.515625,,2.515625,,2.515625,,0.0,0.0873
1982-09-02 23:00:00,2.476562976837158,,2.476562976837158,,2.476562976837158,,0.0,0.0866
1982-09-03 23:00:00,2.539062976837158,,2.539062976837158,,2.539062976837158,,0.0,0.08460000000000001
1982-09-07 23:00:00,2.546875,,2.546875,,2.546875,,0.0,0.0868
1982-09-08 23:00:00,2.53125,,2.53125,,2.53125,,0.0,0.086
1982-09-09 23:00:00,2.53125,,2.53125,,2.53125,,0.0,0.0857
1982-09-10 23:00:00,2.484375,,2.484375,,2.484375,,0.0,0.0866
1982-09-13 23:00:00,2.484375,,2.484375,,2.484375,,0.0,0.08410000000000001
1982-09-14 23:00:00,2.484375,,2.484375,,2.484375,,0.0,0.0816
1982-09-15 23:00:00,2.515625,,2.515625,,2.515625,,0.0,0.08439999999999999
1982-09-16 23:00:00,2.492187976837158,,2.492187976837158,,2.492187976837158,,0.0,0.08310000000000001
1982-09-17 23:00:00,2.46875,,2.46875,,2.46875,,0.0,0.0823
1982-09-20 23:00:00,2.492187976837158,,2.492187976837158,,2.492187976837158,,0.0,0.08039999999999999
1982-09-21 23:00:00,2.515625,,2.515625,,2.515625,,0.0,0.0788
1982-09-22 23:00:00,2.585937976837158,,2.585937976837158,,2.585937976837158,,0.0,0.0758
1982-09-23 23:00:00,2.5625,,2.5625,,2.5625,,0.0,0.07519999999999999
1982-09-24 23:00:00,2.5625,,2.5625,,2.5625,,0.0,0.0785
1982-09-27 23:00:00,2.546875,,2.546875,,2.546875,,0.0,0.0783
1982-09-28 23:00:00,2.546875,,2.546875,,2.546875,,0.0,0.07719999999999999
1982-09-29 23:00:00,2.5,,2.5,,2.5,,0.0,0.0784
1982-09-30 23:00:00,2.460937976837158,,2.460937976837158,,2.460937976837158,,0.0,0.0788
1982-10-01 23:00:00,2.5,,2.5,,2.5,,0.0,0.076
1982-10-04 23:00:00,2.507812976837158,,2.507812976837158,,2.507812976837158,,0.0,0.0821
1982-10-05 23:00:00,2.515625,,2.515625,,2.515625,,0.0,0.08439999999999999
1982-10-06 23:00:00,2.5625,,2.5625,,2.5625,,0.0,0.0833
1982-10-07 23:00:00,2.609375,,2.609375,,2.609375,,0.0,0.08039999999999999
1982-10-08 23:00:00,2.59375,,2.59375,,2.59375,,0.0,0.08
1982-10-11 23:00:00,2.617187976837158,,2.617187976837158,,2.617187976837158,,0.0,0.08
1982-10-12 23:00:00,2.679687976837158,,2.679687976837158,,2.679687976837158,,0.0,0.0761
1982-10-13 23:00:00,2.828125,,2.828125,,2.828125,,0.0,0.0767
1982-10-14 23:00:00,2.65625,,2.65625,,2.65625,,0.0,0.0779
1982-10-15 23:00:00,2.632812976837158,,2.632812976837158,,2.632812976837158,,0.0,0.078
1982-10-18 23:00:00,2.734375,,2.734375,,2.734375,,0.0,0.0766
1982-10-19 23:00:00,2.804687976837158,,2.804687976837158,,2.804687976837158,,0.0,0.07730000000000001
1982-10-20 23:00:00,2.875,,2.875,,2.875,,0.0,0.078
1982-10-21 23:00:00,2.96875,,2.96875,,2.96875,,0.0,0.0781
1982-10-22 23:00:00,3.070312976837158,,3.070312976837158,,3.070312976837158,,0.0,0.0788
1982-10-25 23:00:00,2.890625,,2.890625,,2.890625,,0.0,0.0812
1982-10-26 23:00:00,2.921875,,2.921875,,2.921875,,0.0,0.0824
1982-10-27 23:00:00,3.070312976837158,,3.070312976837158,,3.070312976837158,,0.0,0.0828
1982-10-28 23:00:00,3.0625,,3.0625,,3.0625,,0.0,0.0817
1982-10-29 23:00:00,3.007812976837158,,3.007812976837158,,3.007812976837158,,0.0,0.0817
1982-11-01 23:00:00,3.0,,3.0,,3.0,,0.0,0.0806
1982-11-02 23:00:00,3.015625,,3.015625,,3.015625,,0.0,0.0806
1982-11-03 23:00:00,3.15625,,3.15625,,3.15625,,0.0,0.0806
1982-11-04 23:00:00,3.25,,3.25,,3.25,,0.0,0.0799
1982-11-05 23:00:00,3.335937976837158,,3.335937976837158,,3.335937976837158,,0.0,0.08039999999999999
1982-11-08 23:00:00,3.273437976837158,,3.273437976837158,,3.273437976837158,,0.0,0.0818
1982-11-09 23:00:00,3.21875,,3.21875,,3.21875,,0.0,0.0828
1982-11-10 23:00:00,3.234375,,3.234375,,3.234375,,0.0,0.0836
1982-11-11 23:00:00,3.164062976837158,,3.164062976837158,,3.164062976837158,,0.0,0.0836
1982-11-12 23:00:00,3.171875,,3.171875,,3.171875,,0.0,0.08560000000000001
1982-11-15 23:00:00,3.0625,,3.0625,,3.0625,,0.0,0.08800000000000001
1982-11-16 23:00:00,3.0625,,3.0625,,3.0625,,0.0,0.087
1982-11-17 23:00:00,3.109375,,3.109375,,3.109375,,0.0,0.08650000000000001
1982-11-18 23:00:00,3.140625,,3.140625,,3.140625,,0.0,0.0855
1982-11-19 23:00:00,3.109375,,3.109375,,3.109375,,0.0,0.08380000000000001
1982-11-22 23:00:00,3.078125,,3.078125,,3.078125,,0.0,0.08259999999999999
1982-11-23 23:00:00,2.921875,,2.921875,,2.921875,,0.0,0.08220000000000001
1982-11-24 23:00:00,3.039062976837158,,3.039062976837158,,3.039062976837158,,0.0,0.08199999999999999
1982-11-26 23:00:00,3.109375,,3.109375,,3.109375,,0.0,0.0819
1982-11-29 23:00:00,3.140625,,3.140625,,3.140625,,0.0,0.08539999999999999
1982-11-30 23:00:00,3.140625,,3.140625,,3.140625,,0.0,0.08560000000000001
1982-12-01 23:00:00,3.203125,,3.203125,,3.203125,,0.0,0.0855
1982-12-02 23:00:00,3.234375,,3.234375,,3.234375,,0.0,0.0832
1982-12-03 23:00:00,3.21875,,3.21875,,3.21875,,0.0,0.081
1982-12-06 23:00:00,3.25,,3.25,,3.25,,0.0,0.08130000000000001
1982-12-07 23:00:00,3.265625,,3.265625,,3.265625,,0.0,0.0819
1982-12-08 23:00:00,3.21875,,3.21875,,3.21875,,0.0,0.0824
1982-12-09 23:00:00,3.15625,,3.15625,,3.15625,,0.0,0.0823
1982-12-10 23:00:00,3.09375,,3.09375,,3.09375,,0.0,0.08310000000000001
1982-12-13 23:00:00,3.0,,3.0,,3.0,,0.0,0.0827
1982-12-14 23:00:00,3.0,,3.0,,3.0,,0.0,0.0793
1982-12-15 23:00:00,2.976562976837158,,2.976562976837158,,2.976562976837158,,0.0,0.0788
1982-12-16 23:00:00,2.945312976837158,,2.945312976837158,,2.945312976837158,,0.0,0.081
1982-12-17 23:00:00,3.09375,,3.09375,,3.09375,,0.0,0.08130000000000001
1982-12-20 23:00:00,3.078125,,3.078125,,3.078125,,0.0,0.0814
1982-12-21 23:00:00,3.109375,,3.109375,,3.109375,,0.0,0.0817
1982-12-22 23:00:00,3.234375,,3.234375,,3.234375,,0.0,0.0818
1982-12-23 23:00:00,3.28125,,3.28125,,3.28125,,0.0,0.0818
1982-12-27 23:00:00,3.210937976837158,,3.210937976837158,,3.210937976837158,,0.0,0.0816
1982-12-28 23:00:00,3.296875,,3.296875,,3.296875,,0.0,0.0833
1982-12-29 23:00:00,3.28125,,3.28125,,3.28125,,0.0,0.0843
1982-12-30 23:00:00,3.265625,,3.265625,,3.265625,,0.0,0.08289999999999999
1982-12-31 23:00:00,3.234375,,3.234375,,3.234375,,0.0,0.08199999999999999
1983-01-03 23:00:00,3.15625,,3.15625,,3.15625,,0.0,0.0817
1983-01-04 23:00:00,3.21875,,3.21875,,3.21875,,0.0,0.0828
1983-01-05 23:00:00,3.257812976837158,,3.257812976837158,,3.257812976837158,,0.0,0.0825
1983-01-06 23:00:00,3.421875,,3.421875,,3.421875,,0.0,0.08199999999999999
1983-01-07 23:00:00,3.570312976837158,,3.570312976837158,,3.570312976837158,,0.0,0.0802
1983-01-10 23:00:00,3.5,,3.5,,3.5,,0.0,0.0796
1983-01-11 23:00:00,3.5,,3.5,,3.5,,0.0,0.0794
1983-01-12 23:00:00,3.359375,,3.359375,,3.359375,,0.0,0.0794
1983-01-13 23:00:00,3.382812976837158,,3.382812976837158,,3.382812976837158,,0.0,0.07919999999999999
1983-01-14 23:00:00,3.40625,,3.40625,,3.40625,,0.0,0.0779
1983-01-17 23:00:00,3.390625,,3.390625,,3.390625,,0.0,0.0785
1983-01-18 23:00:00,3.484375,,3.484375,,3.484375,,0.0,0.079
1983-01-19 23:00:00,3.453125,,3.453125,,3.453125,,0.0,0.0794
1983-01-20 23:00:00,3.359375,,3.359375,,3.359375,,0.0,0.08039999999999999
1983-01-21 23:00:00,3.28125,,3.28125,,3.28125,,0.0,0.08289999999999999
1983-01-24 23:00:00,3.21875,,3.21875,,3.21875,,0.0,0.0837
1983-01-25 23:00:00,3.21875,,3.21875,,3.21875,,0.0,0.0832
1983-01-26 23:00:00,3.234375,,3.234375,,3.234375,,0.0,0.0836
1983-01-27 23:00:00,3.359375,,3.359375,,3.359375,,0.0,0.083
1983-01-28 23:00:00,3.40625,,3.40625,,3.40625,,0.0,0.08259999999999999
1983-01-31 23:00:00,3.429687976837158,,3.429687976837158,,3.429687976837158,,0.0,0.0836
1983-02-01 23:00:00,3.375,,3.375,,3.375,,0.0,0.08449999999999999
1983-02-02 23:00:00,3.375,,3.375,,3.375,,0.0,0.08449999999999999
1983-02-03 23:00:00,3.390625,,3.390625,,3.390625,,0.0,0.0843
1983-02-04 23:00:00,3.40625,,3.40625,,3.40625,,0.0,0.0852
1983-02-07 23:00:00,3.421875,,3.421875,,3.421875,,0.0,0.085
1983-02-08 23:00:00,3.375,,3.375,,3.375,,0.0,0.0857
1983-02-09 23:00:00,3.367187976837158,,3.367187976837158,,3.367187976837158,,0.0,0.0855
1983-02-10 23:00:00,3.40625,,3.40625,,3.40625,,0.0,0.08449999999999999
1983-02-11 23:00:00,3.40625,,3.40625,,3.40625,,0.0,0.0842
1983-02-14 23:00:00,3.390625,,3.390625,,3.390625,,0.0,0.08529999999999999
1983-02-15 23:00:00,3.34375,,3.34375,,3.34375,,0.0,0.086
1983-02-16 23:00:00,3.375,,3.375,,3.375,,0.0,0.0848
1983-02-17 23:00:00,3.390625,,3.390625,,3.390625,,0.0,0.08380000000000001
1983-02-18 23:00:00,3.375,,3.375,,3.375,,0.0,0.08259999999999999
1983-02-22 23:00:00,3.398437976837158,,3.398437976837158,,3.398437976837158,,0.0,0.0817
1983-02-23 23:00:00,3.398437976837158,,3.398437976837158,,3.398437976837158,,0.0,0.0824
1983-02-24 23:00:00,3.5625,,3.5625,,3.5625,,0.0,0.08199999999999999
1983-02-25 23:00:00,3.539062976837158,,3.539062976837158,,3.539062976837158,,0.0,0.0808
1983-02-28 23:00:00,3.617187976837158,,3.617187976837158,,3.617187976837158,,0.0,0.0821
1983-03-01 23:00:00,3.6875,,3.6875,,3.6875,,0.0,0.08259999999999999
1983-03-02 23:00:00,3.742187976837158,,3.742187976837158,,3.742187976837158,,0.0,0.083
1983-03-03 23:00:00,3.71875,,3.71875,,3.71875,,0.0,0.0825
1983-03-04 23:00:00,3.703125,,3.703125,,3.703125,,0.0,0.08289999999999999
1983-03-07 23:00:00,3.71875,,3.71875,,3.71875,,0.0,0.0848
1983-03-08 23:00:00,3.65625,,3.65625,,3.65625,,0.0,0.0861
1983-03-09 23:00:00,3.671875,,3.671875,,3.671875,,0.0,0.0857
1983-03-10 23:00:00,3.6875,,3.6875,,3.6875,,0.0,0.0855
1983-03-11 23:00:00,3.695312976837158,,3.695312976837158,,3.695312976837158,,0.0,0.08560000000000001
1983-03-14 23:00:00,3.726562976837158,,3.726562976837158,,3.726562976837158,,0.0,0.0851
1983-03-15 23:00:00,3.726562976837158,,3.726562976837158,,3.726562976837158,,0.0,0.0855
1983-03-16 23:00:00,3.75,,3.75,,3.75,,0.0,0.0861
1983-03-17 23:00:00,3.8125,,3.8125,,3.8125,,0.0,0.0863
1983-03-18 23:00:00,3.984375,,3.984375,,3.984375,,0.0,0.0874
1983-03-21 23:00:00,3.90625,,3.90625,,3.90625,,0.0,0.08800000000000001
1983-03-22 23:00:00,3.9375,,3.9375,,3.9375,,0.0,0.08929999999999999
1983-03-23 23:00:00,3.921875,,3.921875,,3.921875,,0.0,0.08779999999999999
1983-03-24 23:00:00,3.890625,,3.890625,,3.890625,,0.0,0.0883
1983-03-25 23:00:00,3.875,,3.875,,3.875,,0.0,0.09
1983-03-28 23:00:00,3.890625,,3.890625,,3.890625,,0.0,0.0901
1983-03-29 23:00:00,3.859375,,3.859375,,3.859375,,0.0,0.0897
1983-03-30 23:00:00,3.820312976837158,,3.820312976837158,,3.820312976837158,,0.0,0.0898
1983-03-31 23:00:00,3.84375,,3.84375,,3.84375,,0.0,0.08960000000000001
1983-04-04 23:00:00,3.859375,,3.859375,,3.859375,,0.0,0.0897
1983-04-05 23:00:00,3.859375,,3.859375,,3.859375,,0.0,0.08800000000000001
1983-04-06 23:00:00,3.84375,,3.84375,,3.84375,,0.0,0.0872
1983-04-07 23:00:00,3.84375,,3.84375,,3.84375,,0.0,0.0868
1983-04-08 23:00:00,3.765625,,3.765625,,3.765625,,0.0,0.0863
1983-04-11 23:00:00,3.765625,,3.765625,,3.765625,,0.0,0.08449999999999999
1983-04-12 23:00:00,3.828125,,3.828125,,3.828125,,0.0,0.0849
1983-04-13 23:00:00,3.90625,,3.90625,,3.90625,,0.0,0.0848
1983-04-14 23:00:00,3.9375,,3.9375,,3.9375,,0.0,0.0842
1983-04-15 23:00:00,3.914062976837158,,3.914062976837158,,3.914062976837158,,0.0,0.0843
1983-04-18 23:00:00,3.929687976837158,,3.929687976837158,,3.929687976837158,,0.0,0.0836
1983-04-19 23:00:00,3.976562976837158,,3.976562976837158,,3.976562976837158,,0.0,0.08470000000000001
1983-04-20 23:00:00,3.984375,,3.984375,,3.984375,,0.0,0.084
1983-04-21 23:00:00,3.953125,,3.953125,,3.953125,,0.0,0.08439999999999999
1983-04-22 23:00:00,3.953125,,3.953125,,3.953125,,0.0,0.08439999999999999
1983-04-25 23:00:00,3.96875,,3.96875,,3.96875,,0.0,0.08439999999999999
1983-04-26 23:00:00,4.0,,4.0,,4.0,,0.0,0.08449999999999999
1983-04-27 23:00:00,4.023437976837158,,4.023437976837158,,4.023437976837158,,0.0,0.08410000000000001
1983-04-28 23:00:00,4.039062976837158,,4.039062976837158,,4.039062976837158,,0.0,0.08410000000000001
1983-04-29 23:00:00,4.085937976837158,,4.085937976837158,,4.085937976837158,,0.0,0.08380000000000001
1983-05-02 23:00:00,4.054687976837158,,4.054687976837158,,4.054687976837158,,0.0,0.0833
1983-05-03 23:00:00,4.039062976837158,,4.039062976837158,,4.039062976837158,,0.0,0.0833
1983-05-04 23:00:00,3.992187976837158,,3.992187976837158,,3.992187976837158,,0.00923678950338769,0.083
1983-05-05 23:00:00,3.9375,,3.9375,,3.9375,,0.009365079365079364,0.0834
1983-05-06 23:00:00,4.046875,,4.046875,,4.046875,,0.009111969111969112,0.08259999999999999
1983-05-09 23:00:00,4.054687976837158,,4.054687976837158,,4.054687976837158,,0.009094411261890534,0.0843
1983-05-10 23:00:00,4.03125,,4.03125,,4.03125,,0.009147286821705425,0.083
1983-05-11 23:00:00,4.023437976837158,,4.023437976837158,,4.023437976837158,,0.009165047457494944,0.0825
1983-05-12 23:00:00,3.976562976837158,,3.976562976837158,,3.976562976837158,,0.009273083367418286,0.08349999999999999
1983-05-13 23:00:00,3.984375,,3.984375,,3.984375,,0.009254901960784313,0.083
1983-05-16 23:00:00,4.0,,4.0,,4.0,,0.00921875,0.08449999999999999
1983-05-17 23:00:00,4.015625,,4.015625,,4.015625,,0.009182879377431907,0.08439999999999999
1983-05-18 23:00:00,4.03125,,4.03125,,4.03125,,0.009147286821705425,0.0842
1983-05-19 23:00:00,3.953125,,3.953125,,3.953125,,0.009328063241106719,0.08460000000000001
1983-05-20 23:00:00,4.007812976837158,,4.007812976837158,,4.007812976837158,,0.00920077863241528,0.0848
1983-05-23 23:00:00,4.039062976837158,,4.039062976837158,,4.039062976837158,,0.009129592732638067,0.0873
1983-05-24 23:00:00,4.117187976837158,,4.117187976837158,,4.117187976837158,,0.008956355698951481,0.08800000000000001
1983-05-25 23:00:00,4.109375,,4.109375,,4.109375,,0.00897338403041825,0.0882
1983-05-26 23:00:00,4.203125,,4.203125,,4.203125,,0.008773234200743494,0.0885
1983-05-27 23:00:00,4.164062976837158,,4.164062976837158,,4.164062976837158,,0.008855533695124047,0.08800000000000001
1983-05-31 23:00:00,4.09375,,4.09375,,4.09375,,0.00900763358778626,0.0897
1983-06-01 23:00:00,4.101562976837158,,4.101562976837158,,4.101562976837158,,0.00899047514526656,0.0892
1983-06-02 23:00:00,4.03125,,4.03125,,4.03125,,0.009147286821705425,0.08839999999999999
1983-06-03 23:00:00,4.03125,,4.03125,,4.03125,,0.009147286821705425,0.08869999999999999
1983-06-06 23:00:00,4.070312976837158,,4.070312976837158,,4.070312976837158,,0.009059499898372377,0.08960000000000001
1983-06-07 23:00:00,4.046875,,4.046875,,4.046875,,0.009111969111969112,0.0917
1983-06-08 23:00:00,4.007812976837158,,4.007812976837158,,4.007812976837158,,0.00920077863241528,0.09179999999999999
1983-06-09 23:00:00,4.007812976837158,,4.007812976837158,,4.007812976837158,,0.00920077863241528,0.0908
1983-06-10 23:00:00,4.0625,,4.0625,,4.0625,,0.009076923076923076,0.0911
1983-06-13 23:00:00,4.078125,,4.078125,,4.078125,,0.00904214559386973,0.09029999999999999
1983-06-14 23:00:00,4.109375,,4.109375,,4.109375,,0.00897338403041825,0.0906
1983-06-15 23:00:00,4.117187976837158,,4.117187976837158,,4.117187976837158,,0.008956355698951481,0.0906
1983-06-16 23:00:00,4.15625,,4.15625,,4.15625,,0.00887218045112782,0.08990000000000001
1983-06-17 23:00:00,4.125,,4.125,,4.125,,0.00893939393939394,0.0901
1983-06-20 23:00:00,4.117187976837158,,4.117187976837158,,4.117187976837158,,0.008956355698951481,0.0932
1983-06-21 23:00:00,4.09375,,4.09375,,4.09375,,0.00900763358778626,0.0932
1983-06-22 23:00:00,4.09375,,4.09375,,4.09375,,0.00900763358778626,0.0935
1983-06-23 23:00:00,4.070312976837158,,4.070312976837158,,4.070312976837158,,0.009059499898372377,0.0931
1983-06-24 23:00:00,4.09375,,4.09375,,4.09375,,0.00900763358778626,0.0942
1983-06-27 23:00:00,4.078125,,4.078125,,4.078125,,0.00904214559386973,0.09380000000000001
1983-06-28 23:00:00,4.046875,,4.046875,,4.046875,,0.009111969111969112,0.0934
1983-06-29 23:00:00,3.9375,,3.9375,,3.9375,,0.009365079365079364,0.092
1983-06-30 23:00:00,3.96875,,3.96875,,3.96875,,0.009291338582677165,0.0915
1983-07-01 23:00:00,4.023437976837158,,4.023437976837158,,4.023437976837158,,0.009165047457494944,0.09050000000000001
1983-07-05 23:00:00,3.992187976837158,,3.992187976837158,,3.992187976837158,,0.00923678950338769,0.09359999999999999
1983-07-06 23:00:00,3.984375,,3.984375,,3.984375,,0.009254901960784313,0.09380000000000001
1983-07-07 23:00:00,3.96875,,3.96875,,3.96875,,0.009291338582677165,0.0949
1983-07-08 23:00:00,3.984375,,3.984375,,3.984375,,0.009254901960784313,0.09480000000000001
1983-07-11 23:00:00,3.976562976837158,,3.976562976837158,,3.976562976837158,,0.009273083367418286,0.0942
1983-07-12 23:00:00,3.90625,,3.90625,,3.90625,,0.009439999999999999,0.09519999999999999
1983-07-13 23:00:00,3.867187976837158,,3.867187976837158,,3.867187976837158,,0.009535352359612684,0.0947
1983-07-14 23:00:00,3.898437976837158,,3.898437976837158,,3.898437976837158,,0.009458916678704493,0.0946
1983-07-15 23:00:00,3.828125,,3.828125,,3.828125,,0.009632653061224489,0.0959
1983-07-18 23:00:00,3.8125,,3.8125,,3.8125,,0.009672131147540983,0.0947
1983-07-19 23:00:00,3.8125,,3.8125,,3.8125,,0.009672131147540983,0.0951
1983-07-20 23:00:00,3.875,,3.875,,3.875,,0.009516129032258064,0.0944
1983-07-21 23:00:00,4.0,,4.0,,4.0,,0.00921875,0.0944
1983-07-22 23:00:00,4.125,,4.125,,4.125,,0.00893939393939394,0.09449999999999999
1983-07-25 23:00:00,4.210937976837158,,4.210937976837158,,4.210937976837158,,0.008756956336767721,0.0943
1983-07-26 23:00:00,4.3125,,4.3125,,4.3125,,0.008550724637681159,0.0947
1983-07-27 23:00:00,4.195312976837158,,4.195312976837158,,4.195312976837158,,0.008789570695581339,0.0943
1983-07-28 23:00:00,4.085937976837158,,4.085937976837158,,4.085937976837158,,0.009024855543339448,0.09539999999999998
1983-07-29 23:00:00,3.992187976837158,,3.992187976837158,,3.992187976837158,,0.00923678950338769,0.0959
1983-08-01 23:00:00,3.914062976837158,,3.914062976837158,,3.914062976837158,,0.009421156536882712,0.09630000000000001
1983-08-02 23:00:00,3.914062976837158,,3.914062976837158,,3.914062976837158,,0.009421156536882712,0.0989
1983-08-03 23:00:00,3.875,,3.875,,3.875,,0.009516129032258064,0.0978
1983-08-04 23:00:00,3.710937976837158,,3.710937976837158,,3.710937976837158,,0.020715786811807822,0.0986
1983-08-05 23:00:00,3.734375,,3.734375,,3.734375,,0.020585774058577404,0.0983
1983-08-08 23:00:00,3.734375,,3.734375,,3.734375,,0.020585774058577404,0.0989
1983-08-09 23:00:00,3.671875,,3.671875,,3.671875,,0.020936170212765958,0.09939999999999999
1983-08-10 23:00:00,3.53125,,3.53125,,3.53125,,0.02176991150442478,0.09970000000000001
1983-08-11 23:00:00,3.5625,,3.5625,,3.5625,,0.02157894736842105,0.0998
1983-08-12 23:00:00,3.632812976837158,,3.632812976837158,,3.632812976837158,,0.02116128754498389,0.099
1983-08-15 23:00:00,3.75,,3.75,,3.75,,0.0205,0.0983
1983-08-16 23:00:00,3.671875,,3.671875,,3.671875,,0.020936170212765958,0.0983
1983-08-17 23:00:00,3.734375,,3.734375,,3.734375,,0.020585774058577404,0.0973
1983-08-18 23:00:00,3.710937976837158,,3.710937976837158,,3.710937976837158,,0.020715786811807822,0.0968
1983-08-19 23:00:00,3.734375,,3.734375,,3.734375,,0.020585774058577404,0.09699999999999999
1983-08-22 23:00:00,3.742187976837158,,3.742187976837158,,3.742187976837158,,0.020542794877176,0.09539999999999998
1983-08-23 23:00:00,3.789062976837158,,3.789062976837158,,3.789062976837158,,0.020288657240574506,0.0956
1983-08-24 23:00:00,3.734375,,3.734375,,3.734375,,0.020585774058577404,0.0949
1983-08-25 23:00:00,3.804687976837158,,3.804687976837158,,3.804687976837158,,0.020205336276723086,0.09480000000000001
1983-08-26 23:00:00,3.90625,,3.90625,,3.90625,,0.01968,0.09539999999999998
1983-08-29 23:00:00,3.945312976837158,,3.945312976837158,,3.945312976837158,,0.019485146159843682,0.0962
1983-08-30 23:00:00,4.0,,4.0,,4.0,,0.01921875,0.0969
1983-08-31 23:00:00,3.984375,,3.984375,,3.984375,,0.019294117647058823,0.0964
1983-09-01 23:00:00,4.046875,,4.046875,,4.046875,,0.018996138996138997,0.0958
1983-09-02 23:00:00,4.125,,4.125,,4.125,,0.018636363636363635,0.09630000000000001
1983-09-06 23:00:00,4.1875,,4.1875,,4.1875,,0.01835820895522388,0.0959
1983-09-07 23:00:00,4.335937976837158,,4.335937976837158,,4.335937976837158,,0.017729727779933865,0.0949
1983-09-08 23:00:00,4.359375,,4.359375,,4.359375,,0.01763440860215054,0.09480000000000001
1983-09-09 23:00:00,4.28125,,4.28125,,4.28125,,0.017956204379562045,0.09539999999999998
1983-09-12 23:00:00,4.257812976837158,,4.257812976837158,,4.257812976837158,,0.018055043849555186,0.09390000000000001
1983-09-13 23:00:00,4.1875,,4.1875,,4.1875,,0.01835820895522388,0.0946
1983-09-14 23:00:00,4.203125,,4.203125,,4.203125,,0.01828996282527881,0.0947
1983-09-15 23:00:00,4.21875,,4.21875,,4.21875,,0.018222222222222223,0.0946
1983-09-16 23:00:00,4.09375,,4.09375,,4.09375,,0.018778625954198474,0.0943
1983-09-19 23:00:00,4.171875,,4.171875,,4.171875,,0.01842696629213483,0.0934
1983-09-20 23:00:00,4.25,,4.25,,4.25,,0.018088235294117648,0.0932
1983-09-21 23:00:00,4.46875,,4.46875,,4.46875,,0.0172027972027972,0.0933
1983-09-22 23:00:00,4.4375,,4.4375,,4.4375,,0.01732394366197183,0.0933
1983-09-23 23:00:00,4.546875,,4.546875,,4.546875,,0.016907216494845362,0.0922
1983-09-26 23:00:00,4.484375,,4.484375,,4.484375,,0.017142857142857144,0.09050000000000001
1983-09-27 23:00:00,4.5,,4.5,,4.5,,0.017083333333333332,0.0908
1983-09-28 23:00:00,4.453125,,4.453125,,4.453125,,0.01726315789473684,0.09119999999999999
1983-09-29 23:00:00,4.34375,,4.34375,,4.34375,,0.017697841726618705,0.0924
1983-09-30 23:00:00,4.109375,,4.109375,,4.109375,,0.018707224334600762,0.0904
1983-10-03 23:00:00,4.109375,,4.109375,,4.109375,,0.018707224334600762,0.0913
1983-10-04 23:00:00,4.234375,,4.234375,,4.234375,,0.0181549815498155,0.09
1983-10-05 23:00:00,4.25,,4.25,,4.25,,0.018088235294117648,0.0901
1983-10-06 23:00:00,4.34375,,4.34375,,4.34375,,0.017697841726618705,0.0897
1983-10-07 23:00:00,4.609375,,4.609375,,4.609375,,0.016677966101694915,0.0894
1983-10-10 23:00:00,4.515625,,4.515625,,4.515625,,0.0170242214532872,0.0894
1983-10-11 23:00:00,4.5,,4.5,,4.5,,0.017083333333333332,0.0916
1983-10-12 23:00:00,4.5625,,4.5625,,4.5625,,0.01684931506849315,0.09140000000000001
1983-10-13 23:00:00,4.578125,,4.578125,,4.578125,,0.016791808873720136,0.0916
1983-10-14 23:00:00,4.546875,,4.546875,,4.546875,,0.016907216494845362,0.09119999999999999
1983-10-17 23:00:00,4.40625,,4.40625,,4.40625,,0.017446808510638297,0.0888
1983-10-18 23:00:00,4.40625,,4.40625,,4.40625,,0.017446808510638297,0.0885
1983-10-19 23:00:00,4.40625,,4.40625,,4.40625,,0.017446808510638297,0.08839999999999999
1983-10-20 23:00:00,4.46875,,4.46875,,4.46875,,0.0172027972027972,0.0888
1983-10-21 23:00:00,4.53125,,4.53125,,4.53125,,0.016965517241379312,0.08869999999999999
1983-10-24 23:00:00,4.5625,,4.5625,,4.5625,,0.01684931506849315,0.09029999999999999
1983-10-25 23:00:00,4.546875,,4.546875,,4.546875,,0.016907216494845362,0.09
1983-10-26 23:00:00,4.515625,,4.515625,,4.515625,,0.0170242214532872,0.09
1983-10-27 23:00:00,4.484375,,4.484375,,4.484375,,0.017142857142857144,0.08990000000000001
1983-10-28 23:00:00,4.5,,4.5,,4.5,,0.017083333333333332,0.08960000000000001
1983-10-31 23:00:00,4.5625,,4.5625,,4.5625,,0.01684931506849315,0.0883
1983-11-01 23:00:00,4.46875,,4.46875,,4.46875,,0.0172027972027972,0.08800000000000001
1983-11-02 23:00:00,4.546875,,4.546875,,4.546875,,0.016907216494845362,0.0882
1983-11-03 23:00:00,4.46875,,4.46875,,4.46875,,0.026153846153846156,0.0897
1983-11-04 23:00:00,4.34375,,4.34375,,4.34375,,0.026906474820143887,0.09140000000000001
1983-11-07 23:00:00,4.28125,,4.28125,,4.28125,,0.027299270072992703,0.09140000000000001
1983-11-08 23:00:00,4.203125,,4.203125,,4.203125,,0.02780669144981413,0.09140000000000001
1983-11-09 23:00:00,4.25,,4.25,,4.25,,0.0275,0.0913
1983-11-10 23:00:00,4.203125,,4.203125,,4.203125,,0.02780669144981413,0.0909
1983-11-11 23:00:00,4.3125,,4.3125,,4.3125,,0.02710144927536232,0.0909
1983-11-14 23:00:00,4.375,,4.375,,4.375,,0.026714285714285715,0.09119999999999999
1983-11-15 23:00:00,4.34375,,4.34375,,4.34375,,0.026906474820143887,0.0913
1983-11-16 23:00:00,4.40625,,4.40625,,4.40625,,0.026524822695035463,0.09140000000000001
1983-11-17 23:00:00,4.390625,,4.390625,,4.390625,,0.026619217081850534,0.092
1983-11-18 23:00:00,4.390625,,4.390625,,4.390625,,0.026619217081850534,0.092
1983-11-21 23:00:00,4.40625,,4.40625,,4.40625,,0.026524822695035463,0.09119999999999999
1983-11-22 23:00:00,4.53125,,4.53125,,4.53125,,0.025793103448275862,0.09119999999999999
1983-11-23 23:00:00,4.578125,,4.578125,,4.578125,,0.02552901023890785,0.0916
1983-11-25 23:00:00,4.59375,,4.59375,,4.59375,,0.0254421768707483,0.09119999999999999
1983-11-28 23:00:00,4.5625,,4.5625,,4.5625,,0.025616438356164384,0.0925
1983-11-29 23:00:00,4.4375,,4.4375,,4.4375,,0.026338028169014087,0.0922
1983-11-30 23:00:00,4.515625,,4.515625,,4.515625,,0.02588235294117647,0.0924
1983-12-01 23:00:00,4.5,,4.5,,4.5,,0.025972222222222223,0.09269999999999999
1983-12-02 23:00:00,4.546875,,4.546875,,4.546875,,0.02570446735395189,0.0928
1983-12-05 23:00:00,4.5,,4.5,,4.5,,0.025972222222222223,0.0929
1983-12-06 23:00:00,4.46875,,4.46875,,4.46875,,0.026153846153846156,0.09300000000000001
1983-12-07 23:00:00,4.4375,,4.4375,,4.4375,,0.026338028169014087,0.0931
1983-12-08 23:00:00,4.4375,,4.4375,,4.4375,,0.026338028169014087,0.09380000000000001
1983-12-09 23:00:00,4.4375,,4.4375,,4.4375,,0.026338028169014087,0.0934
1983-12-12 23:00:00,4.390625,,4.390625,,4.390625,,0.026619217081850534,0.0931
1983-12-13 23:00:00,4.40625,,4.40625,,4.40625,,0.026524822695035463,0.0946
1983-12-14 23:00:00,4.34375,,4.34375,,4.34375,,0.026906474820143887,0.09480000000000001
1983-12-15 23:00:00,4.265625,,4.265625,,4.265625,,0.027399267399267402,0.0953
1983-12-16 23:00:00,4.234375,,4.234375,,4.234375,,0.027601476014760148,0.0947
1983-12-19 23:00:00,4.296875,,4.296875,,4.296875,,0.027200000000000002,0.09449999999999999
1983-12-20 23:00:00,4.296875,,4.296875,,4.296875,,0.027200000000000002,0.0941
1983-12-21 23:00:00,4.3125,,4.3125,,4.3125,,0.02710144927536232,0.09359999999999999
1983-12-22 23:00:00,4.25,,4.25,,4.25,,0.0275,0.0925
1983-12-23 23:00:00,4.21875,,4.21875,,4.21875,,0.027703703703703706,0.0932
1983-12-27 23:00:00,4.328125,,4.328125,,4.328125,,0.02700361010830325,0.0929
1983-12-28 23:00:00,4.296875,,4.296875,,4.296875,,0.027200000000000002,0.0934
1983-12-29 23:00:00,4.4375,,4.4375,,4.4375,,0.026338028169014087,0.0934
1983-12-30 23:00:00,4.359375,,4.359375,,4.359375,,0.026810035842293908,0.0933
1984-01-03 23:00:00,4.34375,,4.34375,,4.34375,,0.026906474820143887,0.0935
1984-01-04 23:00:00,4.34375,,4.34375,,4.34375,,0.026906474820143887,0.0934
1984-01-05 23:00:00,4.5625,,4.5625,,4.5625,,0.025616438356164384,0.0929
1984-01-06 23:00:00,4.59375,,4.59375,,4.59375,,0.0254421768707483,0.0922
1984-01-09 23:00:00,4.671875,,4.671875,,4.671875,,0.025016722408026756,0.0925
1984-01-10 23:00:00,4.578125,,4.578125,,4.578125,,0.02552901023890785,0.09269999999999999
1984-01-11 23:00:00,4.578125,,4.578125,,4.578125,,0.02552901023890785,0.09300000000000001
1984-01-12 23:00:00,4.5,,4.5,,4.5,,0.025972222222222223,0.0929
1984-01-13 23:00:00,4.375,,4.375,,4.375,,0.026714285714285715,0.0908
1984-01-16 23:00:00,4.421875,,4.421875,,4.421875,,0.026431095406360426,0.0911
1984-01-17 23:00:00,4.421875,,4.421875,,4.421875,,0.026431095406360426,0.0924
1984-01-18 23:00:00,4.375,,4.375,,4.375,,0.026714285714285715,0.09269999999999999
1984-01-19 23:00:00,4.4375,,4.4375,,4.4375,,0.026338028169014087,0.0925
1984-01-20 23:00:00,4.453125,,4.453125,,4.453125,,0.02624561403508772,0.0932
1984-01-23 23:00:00,4.296875,,4.296875,,4.296875,,0.027200000000000002,0.09300000000000001
1984-01-24 23:00:00,4.21875,,4.21875,,4.21875,,0.027703703703703706,0.0929
1984-01-25 23:00:00,4.21875,,4.21875,,4.21875,,0.027703703703703706,0.09300000000000001
1984-01-26 23:00:00,4.15625,,4.15625,,4.15625,,0.0281203007518797,0.0929
1984-01-27 23:00:00,4.125,,4.125,,4.125,,0.028333333333333335,0.0928
1984-01-30 23:00:00,4.0,,4.0,,4.0,,0.02921875,0.0924
1984-01-31 23:00:00,4.0,,4.0,,4.0,,0.02921875,0.0926
1984-02-01 23:00:00,3.96875,,3.96875,,3.96875,,0.029448818897637796,0.0925
1984-02-02 23:00:00,3.875,,3.875,,3.875,,0.030161290322580647,0.09269999999999999
1984-02-03 23:00:00,3.9375,,3.9375,,3.9375,,0.029682539682539685,0.0932
1984-02-06 23:00:00,3.9375,,3.9375,,3.9375,,0.029682539682539685,0.095
1984-02-07 23:00:00,3.953125,,3.953125,,3.953125,,0.029565217391304348,0.0943
1984-02-08 23:00:00,3.9375,,3.9375,,3.9375,,0.029682539682539685,0.0947
1984-02-09 23:00:00,3.84375,,3.84375,,3.84375,,0.03040650406504065,0.094
1984-02-10 23:00:00,3.78125,,3.78125,,3.78125,,0.03090909090909091,0.0943
1984-02-13 23:00:00,3.765625,,3.765625,,3.765625,,0.03103734439834025,0.0943
1984-02-14 23:00:00,3.75,,3.75,,3.75,,0.04183333333333333,0.0943
1984-02-15 23:00:00,3.625,,3.625,,3.625,,0.04327586206896551,0.0944
1984-02-16 23:00:00,3.625,,3.625,,3.625,,0.04327586206896551,0.0944
1984-02-17 23:00:00,3.46875,,3.46875,,3.46875,,0.04522522522522522,0.0953
1984-02-21 23:00:00,3.484375,,3.484375,,3.484375,,0.045022421524663674,0.095
1984-02-22 23:00:00,3.578125,,3.578125,,3.578125,,0.043842794759825325,0.0951
1984-02-23 23:00:00,3.546875,,3.546875,,3.546875,,0.04422907488986784,0.0964
1984-02-24 23:00:00,3.59375,,3.59375,,3.59375,,0.04365217391304348,0.09539999999999998
1984-02-27 23:00:00,3.78125,,3.78125,,3.78125,,0.04148760330578512,0.0955
1984-02-28 23:00:00,3.65625,,3.65625,,3.65625,,0.0429059829059829,0.0959
1984-02-29 23:00:00,3.734375,,3.734375,,3.734375,,0.04200836820083682,0.0949
1984-03-01 23:00:00,3.78125,,3.78125,,3.78125,,0.04148760330578512,0.09539999999999998
1984-03-02 23:00:00,3.78125,,3.78125,,3.78125,,0.04148760330578512,0.095
1984-03-05 23:00:00,3.71875,,3.71875,,3.71875,,0.04218487394957983,0.09539999999999998
1984-03-06 23:00:00,3.765625,,3.765625,,3.765625,,0.04165975103734439,0.0959
1984-03-07 23:00:00,3.75,,3.75,,3.75,,0.04183333333333333,0.0967
1984-03-08 23:00:00,3.71875,,3.71875,,3.71875,,0.04218487394957983,0.09699999999999999
1984-03-09 23:00:00,3.65625,,3.65625,,3.65625,,0.0429059829059829,0.0977
1984-03-12 23:00:00,3.75,,3.75,,3.75,,0.04183333333333333,0.0969
1984-03-13 23:00:00,3.8125,,3.8125,,3.8125,,0.041147540983606554,0.0974
1984-03-14 23:00:00,3.8125,,3.8125,,3.8125,,0.041147540983606554,0.0983
1984-03-15 23:00:00,3.8125,,3.8125,,3.8125,,0.041147540983606554,0.0986
1984-03-16 23:00:00,3.921875,,3.921875,,3.921875,,0.039999999999999994,0.0987
1984-03-19 23:00:00,3.859375,,3.859375,,3.859375,,0.04064777327935222,0.1
1984-03-20 23:00:00,3.859375,,3.859375,,3.859375,,0.04064777327935222,0.102
1984-03-21 23:00:00,3.875,,3.875,,3.875,,0.04048387096774193,0.102
1984-03-22 23:00:00,3.828125,,3.828125,,3.828125,,0.04097959183673469,0.1018
1984-03-23 23:00:00,3.78125,,3.78125,,3.78125,,0.04148760330578512,0.1015
1984-03-26 23:00:00,3.796875,,3.796875,,3.796875,,0.041316872427983535,0.1011
1984-03-27 23:00:00,3.796875,,3.796875,,3.796875,,0.041316872427983535,0.1017
1984-03-28 23:00:00,3.8125,,3.8125,,3.8125,,0.041147540983606554,0.10099999999999999
1984-03-29 23:00:00,3.796875,,3.796875,,3.796875,,0.041316872427983535,0.1007
1984-03-30 23:00:00,3.796875,,3.796875,,3.796875,,0.041316872427983535,0.1009
1984-04-02 23:00:00,3.640625,,3.640625,,3.640625,,0.043090128755364804,0.1005
1984-04-03 23:00:00,3.6875,,3.6875,,3.6875,,0.04254237288135593,0.1018
1984-04-04 23:00:00,3.703125,,3.703125,,3.703125,,0.04236286919831223,0.1018
1984-04-05 23:00:00,3.703125,,3.703125,,3.703125,,0.04236286919831223,0.1018
1984-04-06 23:00:00,3.65625,,3.65625,,3.65625,,0.0429059829059829,0.1005
1984-04-09 23:00:00,3.515625,,3.515625,,3.515625,,0.044622222222222216,0.09949999999999999
1984-04-10 23:00:00,3.453125,,3.453125,,3.453125,,0.04542986425339366,0.1001
1984-04-11 23:00:00,3.4375,,3.4375,,3.4375,,0.045636363636363635,0.1001
1984-04-12 23:00:00,3.546875,,3.546875,,3.546875,,0.04422907488986784,0.1002
1984-04-13 23:00:00,3.484375,,3.484375,,3.484375,,0.045022421524663674,0.1011
1984-04-16 23:00:00,3.46875,,3.46875,,3.46875,,0.04522522522522522,0.1017
1984-04-17 23:00:00,3.5,,3.5,,3.5,,0.04482142857142857,0.1015
1984-04-18 23:00:00,3.515625,,3.515625,,3.515625,,0.044622222222222216,0.1014
1984-04-19 23:00:00,3.5625,,3.5625,,3.5625,,0.04403508771929824,0.10099999999999999
1984-04-23 23:00:00,3.5625,,3.5625,,3.5625,,0.04403508771929824,0.1001
1984-04-24 23:00:00,3.5,,3.5,,3.5,,0.04482142857142857,0.10039999999999999
1984-04-25 23:00:00,3.5625,,3.5625,,3.5625,,0.04403508771929824,0.1002
1984-04-26 23:00:00,3.703125,,3.703125,,3.703125,,0.04236286919831223,0.09910000000000001
1984-04-27 23:00:00,3.75,,3.75,,3.75,,0.04183333333333333,0.1008
1984-04-30 23:00:00,3.78125,,3.78125,,3.78125,,0.04148760330578512,0.10099999999999999
1984-05-01 23:00:00,3.84375,,3.84375,,3.84375,,0.0408130081300813,0.1008
1984-05-02 23:00:00,3.859375,,3.859375,,3.859375,,0.04064777327935222,0.10060000000000001
1984-05-03 23:00:00,3.828125,,3.828125,,3.828125,,0.03134693877551021,0.1005
1984-05-04 23:00:00,3.65625,,3.65625,,3.65625,,0.045128205128205125,0.1025
1984-05-07 23:00:00,3.75,,3.75,,3.75,,0.044,0.1035
1984-05-08 23:00:00,3.8125,,3.8125,,3.8125,,0.04327868852459016,0.10439999999999999
1984-05-09 23:00:00,3.78125,,3.78125,,3.78125,,0.04363636363636363,0.10400000000000001
1984-05-10 23:00:00,3.78125,,3.78125,,3.78125,,0.04363636363636363,0.1025
1984-05-11 23:00:00,3.703125,,3.703125,,3.703125,,0.04455696202531645,0.10400000000000001
1984-05-14 23:00:00,3.625,,3.625,,3.625,,0.04551724137931034,0.10369999999999999
1984-05-15 23:00:00,3.578125,,3.578125,,3.578125,,0.046113537117903926,0.1052
1984-05-16 23:00:00,3.5625,,3.5625,,3.5625,,0.046315789473684206,0.1014
1984-05-17 23:00:00,3.46875,,3.46875,,3.46875,,0.04756756756756756,0.1016
1984-05-18 23:00:00,3.421875,,3.421875,,3.421875,,0.048219178082191776,0.10189999999999999
1984-05-21 23:00:00,3.421875,,3.421875,,3.421875,,0.048219178082191776,0.1007
1984-05-22 23:00:00,3.34375,,3.34375,,3.34375,,0.04934579439252336,0.1045
1984-05-23 23:00:00,3.390625,,3.390625,,3.390625,,0.048663594470046076,0.1033
1984-05-24 23:00:00,3.34375,,3.34375,,3.34375,,0.04934579439252336,0.1009
1984-05-25 23:00:00,3.3125,,3.3125,,3.3125,,0.049811320754716976,0.09939999999999999
1984-05-29 23:00:00,3.25,,3.25,,3.25,,0.05076923076923076,0.1009
1984-05-30 23:00:00,3.15625,,3.15625,,3.15625,,0.05227722772277227,0.1015
1984-05-31 23:00:00,3.125,,3.125,,3.125,,0.05279999999999999,0.1013
1984-06-01 23:00:00,3.203125,,3.203125,,3.203125,,0.05151219512195122,0.1018
1984-06-04 23:00:00,3.375,,3.375,,3.375,,0.048888888888888885,0.1023
1984-06-05 23:00:00,3.34375,,3.34375,,3.34375,,0.04934579439252336,0.1014
1984-06-06 23:00:00,3.46875,,3.46875,,3.46875,,0.04756756756756756,0.1015
1984-06-07 23:00:00,3.515625,,3.515625,,3.515625,,0.04693333333333333,0.1023
1984-06-08 23:00:00,3.53125,,3.53125,,3.53125,,0.04672566371681415,0.1025
1984-06-11 23:00:00,3.53125,,3.53125,,3.53125,,0.04672566371681415,0.1043
1984-06-12 23:00:00,3.5,,3.5,,3.5,,0.04714285714285714,0.1048
1984-06-13 23:00:00,3.515625,,3.515625,,3.515625,,0.04693333333333333,0.10279999999999999
1984-06-14 23:00:00,3.453125,,3.453125,,3.453125,,0.047782805429864246,0.10279999999999999
1984-06-15 23:00:00,3.40625,,3.40625,,3.40625,,0.048440366972477056,0.1027
1984-06-18 23:00:00,3.46875,,3.46875,,3.46875,,0.04756756756756756,0.1035
1984-06-19 23:00:00,3.484375,,3.484375,,3.484375,,0.047354260089686094,0.10310000000000001
1984-06-20 23:00:00,3.46875,,3.46875,,3.46875,,0.04756756756756756,0.10310000000000001
1984-06-21 23:00:00,3.453125,,3.453125,,3.453125,,0.047782805429864246,0.1033
1984-06-22 23:00:00,3.453125,,3.453125,,3.453125,,0.047782805429864246,0.1023
1984-06-25 23:00:00,3.46875,,3.46875,,3.46875,,0.04756756756756756,0.1014
1984-06-26 23:00:00,3.46875,,3.46875,,3.46875,,0.04756756756756756,0.10189999999999999
1984-06-27 23:00:00,3.4375,,3.4375,,3.4375,,0.047999999999999994,0.1014
1984-06-28 23:00:00,3.4375,,3.4375,,3.4375,,0.047999999999999994,0.1024
1984-06-29 23:00:00,3.484375,,3.484375,,3.484375,,0.047354260089686094,0.10310000000000001
1984-07-02 23:00:00,3.484375,,3.484375,,3.484375,,0.047354260089686094,0.1012
1984-07-03 23:00:00,3.5625,,3.5625,,3.5625,,0.046315789473684206,0.1038
1984-07-05 23:00:00,3.546875,,3.546875,,3.546875,,0.04651982378854625,0.10369999999999999
1984-07-06 23:00:00,3.546875,,3.546875,,3.546875,,0.04651982378854625,0.10400000000000001
1984-07-09 23:00:00,3.625,,3.625,,3.625,,0.04551724137931034,0.1041
1984-07-10 23:00:00,3.71875,,3.71875,,3.71875,,0.04436974789915966,0.1054
1984-07-11 23:00:00,3.6875,,3.6875,,3.6875,,0.0447457627118644,0.1051
1984-07-12 23:00:00,3.625,,3.625,,3.625,,0.04551724137931034,0.10439999999999999
1984-07-13 23:00:00,3.609375,,3.609375,,3.609375,,0.04571428571428571,0.1036
1984-07-16 23:00:00,3.625,,3.625,,3.625,,0.04551724137931034,0.10400000000000001
1984-07-17 23:00:00,3.65625,,3.65625,,3.65625,,0.045128205128205125,0.1061
1984-07-18 23:00:00,3.625,,3.625,,3.625,,0.04551724137931034,0.1052
1984-07-19 23:00:00,3.5,,3.5,,3.5,,0.04714285714285714,0.1054
1984-07-20 23:00:00,3.59375,,3.59375,,3.59375,,0.04591304347826086,0.1059
1984-07-23 23:00:00,3.546875,,3.546875,,3.546875,,0.04651982378854625,0.1063
1984-07-24 23:00:00,3.546875,,3.546875,,3.546875,,0.04651982378854625,0.1069
1984-07-25 23:00:00,3.546875,,3.546875,,3.546875,,0.04651982378854625,0.10679999999999999
1984-07-26 23:00:00,3.53125,,3.53125,,3.53125,,0.04672566371681415,0.1067
1984-07-27 23:00:00,3.53125,,3.53125,,3.53125,,0.04672566371681415,0.107
1984-07-30 23:00:00,3.5,,3.5,,3.5,,0.04714285714285714,0.1076
1984-07-31 23:00:00,3.453125,,3.453125,,3.453125,,0.047782805429864246,0.10830000000000001
1984-08-01 23:00:00,3.625,,3.625,,3.625,,0.04551724137931034,0.10859999999999999
1984-08-02 23:00:00,3.75,,3.75,,3.75,,0.044,0.109
1984-08-03 23:00:00,3.875,,3.875,,3.875,,0.03225806451612903,0.109
1984-08-06 23:00:00,3.9375,,3.9375,,3.9375,,0.04317460317460317,0.10980000000000001
1984-08-07 23:00:00,3.984375,,3.984375,,3.984375,,0.042666666666666665,0.1097
1984-08-08 23:00:00,3.9375,,3.9375,,3.9375,,0.04317460317460317,0.109
1984-08-09 23:00:00,4.109375,,4.109375,,4.109375,,0.041368821292775665,0.1085
1984-08-10 23:00:00,4.1875,,4.1875,,4.1875,,0.04059701492537313,0.10859999999999999
1984-08-13 23:00:00,4.078125,,4.078125,,4.078125,,0.04168582375478927,0.10880000000000001
1984-08-14 23:00:00,4.09375,,4.09375,,4.09375,,0.0415267175572519,0.1072
1984-08-15 23:00:00,4.078125,,4.078125,,4.078125,,0.04168582375478927,0.10619999999999999
1984-08-16 23:00:00,4.09375,,4.09375,,4.09375,,0.0415267175572519,0.10679999999999999
1984-08-17 23:00:00,4.109375,,4.109375,,4.109375,,0.041368821292775665,0.1075
1984-08-20 23:00:00,4.1875,,4.1875,,4.1875,,0.04059701492537313,0.10880000000000001
1984-08-21 23:00:00,4.234375,,4.234375,,4.234375,,0.04014760147601475,0.1085
1984-08-22 23:00:00,4.21875,,4.21875,,4.21875,,0.040296296296296295,0.1084
1984-08-23 23:00:00,4.1875,,4.1875,,4.1875,,0.04059701492537313,0.10880000000000001
1984-08-24 23:00:00,4.296875,,4.296875,,4.296875,,0.03956363636363636,0.1091
1984-08-27 23:00:00,4.28125,,4.28125,,4.28125,,0.03970802919708029,0.1112
1984-08-28 23:00:00,4.234375,,4.234375,,4.234375,,0.04014760147601475,0.111
1984-08-29 23:00:00,4.1875,,4.1875,,4.1875,,0.04059701492537313,0.11109999999999999
1984-08-30 23:00:00,4.15625,,4.15625,,4.15625,,0.04090225563909774,0.1109
1984-08-31 23:00:00,4.1875,,4.1875,,4.1875,,0.04059701492537313,0.1106
1984-09-04 23:00:00,4.171875,,4.171875,,4.171875,,0.04074906367041198,0.1114
1984-09-05 23:00:00,4.140625,,4.140625,,4.140625,,0.0410566037735849,0.1108
1984-09-06 23:00:00,4.1875,,4.1875,,4.1875,,0.04059701492537313,0.1104
1984-09-07 23:00:00,4.1875,,4.1875,,4.1875,,0.04059701492537313,0.1099
1984-09-10 23:00:00,4.1875,,4.1875,,4.1875,,0.04059701492537313,0.1084
1984-09-11 23:00:00,4.25,,4.25,,4.25,,0.039999999999999994,0.1082
1984-09-12 23:00:00,4.21875,,4.21875,,4.21875,,0.040296296296296295,0.10830000000000001
1984-09-13 23:00:00,4.34375,,4.34375,,4.34375,,0.039136690647482014,0.1075
1984-09-14 23:00:00,4.34375,,4.34375,,4.34375,,0.039136690647482014,0.1079
1984-09-17 23:00:00,4.40625,,4.40625,,4.40625,,0.03858156028368794,0.1081
1984-09-18 23:00:00,4.484375,,4.484375,,4.484375,,0.037909407665505226,0.1074
1984-09-19 23:00:00,4.4375,,4.4375,,4.4375,,0.03830985915492957,0.1069
1984-09-20 23:00:00,4.46875,,4.46875,,4.46875,,0.03804195804195804,0.1066
1984-09-21 23:00:00,4.4375,,4.4375,,4.4375,,0.03830985915492957,0.1067
1984-09-24 23:00:00,4.46875,,4.46875,,4.46875,,0.03804195804195804,0.1072
1984-09-25 23:00:00,4.421875,,4.421875,,4.421875,,0.0384452296819788,0.10710000000000001
1984-09-26 23:00:00,4.359375,,4.359375,,4.359375,,0.03899641577060931,0.10640000000000001
1984-09-27 23:00:00,4.375,,4.375,,4.375,,0.038857142857142854,0.1057
1984-09-28 23:00:00,4.21875,,4.21875,,4.21875,,0.040296296296296295,0.1063
1984-10-01 23:00:00,4.21875,,4.21875,,4.21875,,0.040296296296296295,0.1065
1984-10-02 23:00:00,4.171875,,4.171875,,4.171875,,0.04074906367041198,0.1067
1984-10-03 23:00:00,4.03125,,4.03125,,4.03125,,0.04217054263565891,0.1059
1984-10-04 23:00:00,4.09375,,4.09375,,4.09375,,0.0415267175572519,0.1057
1984-10-05 23:00:00,4.171875,,4.171875,,4.171875,,0.04074906367041198,0.10550000000000001
1984-10-08 23:00:00,4.109375,,4.109375,,4.109375,,0.041368821292775665,0.10550000000000001
1984-10-09 23:00:00,4.140625,,4.140625,,4.140625,,0.0410566037735849,0.1051
1984-10-10 23:00:00,4.15625,,4.15625,,4.15625,,0.04090225563909774,0.1048
1984-10-11 23:00:00,4.21875,,4.21875,,4.21875,,0.040296296296296295,0.1036
1984-10-12 23:00:00,4.296875,,4.296875,,4.296875,,0.03956363636363636,0.10300000000000001
1984-10-15 23:00:00,4.34375,,4.34375,,4.34375,,0.039136690647482014,0.1039
1984-10-16 23:00:00,4.21875,,4.21875,,4.21875,,0.040296296296296295,0.1035
1984-10-17 23:00:00,4.25,,4.25,,4.25,,0.039999999999999994,0.1026
1984-10-18 23:00:00,4.34375,,4.34375,,4.34375,,0.039136690647482014,0.10099999999999999
1984-10-19 23:00:00,4.421875,,4.421875,,4.421875,,0.0384452296819788,0.0993
1984-10-22 23:00:00,4.375,,4.375,,4.375,,0.038857142857142854,0.0992
1984-10-23 23:00:00,4.34375,,4.34375,,4.34375,,0.039136690647482014,0.09820000000000001
1984-10-24 23:00:00,4.390625,,4.390625,,4.390625,,0.03871886120996441,0.0951
1984-10-25 23:00:00,4.34375,,4.34375,,4.34375,,0.039136690647482014,0.0953
1984-10-26 23:00:00,4.28125,,4.28125,,4.28125,,0.03970802919708029,0.0971
1984-10-29 23:00:00,4.25,,4.25,,4.25,,0.039999999999999994,0.0965
1984-10-30 23:00:00,4.328125,,4.328125,,4.328125,,0.03927797833935018,0.09539999999999998
1984-10-31 23:00:00,4.296875,,4.296875,,4.296875,,0.03956363636363636,0.0935
1984-11-01 23:00:00,4.125,,4.125,,4.125,,0.04121212121212121,0.09359999999999999
1984-11-02 23:00:00,4.140625,,4.140625,,4.140625,,0.04226415094339622,0.0934
1984-11-05 23:00:00,4.203125,,4.203125,,4.203125,,0.041635687732342004,0.08990000000000001
1984-11-06 23:00:00,4.296875,,4.296875,,4.296875,,0.04072727272727272,0.08990000000000001
1984-11-07 23:00:00,4.28125,,4.28125,,4.28125,,0.040875912408759124,0.0886
1984-11-08 23:00:00,4.28125,,4.28125,,4.28125,,0.040875912408759124,0.0908
1984-11-09 23:00:00,4.28125,,4.28125,,4.28125,,0.040875912408759124,0.0894
1984-11-12 23:00:00,4.296875,,4.296875,,4.296875,,0.04072727272727272,0.0894
1984-11-13 23:00:00,4.28125,,4.28125,,4.28125,,0.040875912408759124,0.0904
1984-11-14 23:00:00,4.3125,,4.3125,,4.3125,,0.04057971014492753,0.0908
1984-11-15 23:00:00,4.3125,,4.3125,,4.3125,,0.04057971014492753,0.0898
1984-11-16 23:00:00,4.328125,,4.328125,,4.328125,,0.04043321299638989,0.08900000000000001
1984-11-19 23:00:00,4.3125,,4.3125,,4.3125,,0.04057971014492753,0.08929999999999999
1984-11-20 23:00:00,4.25,,4.25,,4.25,,0.041176470588235294,0.08929999999999999
1984-11-21 23:00:00,4.25,,4.25,,4.25,,0.041176470588235294,0.0885
1984-11-23 23:00:00,4.25,,4.25,,4.25,,0.041176470588235294,0.0875
1984-11-26 23:00:00,4.234375,,4.234375,,4.234375,,0.04132841328413284,0.08789999999999999
1984-11-27 23:00:00,4.203125,,4.203125,,4.203125,,0.041635687732342004,0.0868
1984-11-28 23:00:00,4.140625,,4.140625,,4.140625,,0.04226415094339622,0.0868
1984-11-29 23:00:00,4.078125,,4.078125,,4.078125,,0.04291187739463601,0.08650000000000001
1984-11-30 23:00:00,4.109375,,4.109375,,4.109375,,0.04258555133079848,0.0874
1984-12-03 23:00:00,4.078125,,4.078125,,4.078125,,0.04291187739463601,0.08710000000000001
1984-12-04 23:00:00,4.15625,,4.15625,,4.15625,,0.042105263157894736,0.08800000000000001
1984-12-05 23:00:00,4.09375,,4.09375,,4.09375,,0.042748091603053436,0.08779999999999999
1984-12-06 23:00:00,4.140625,,4.140625,,4.140625,,0.04226415094339622,0.08779999999999999
1984-12-07 23:00:00,4.125,,4.125,,4.125,,0.04242424242424242,0.0864
1984-12-10 23:00:00,4.140625,,4.140625,,4.140625,,0.04226415094339622,0.08650000000000001
1984-12-11 23:00:00,4.140625,,4.140625,,4.140625,,0.04226415094339622,0.0863
1984-12-12 23:00:00,4.140625,,4.140625,,4.140625,,0.04226415094339622,0.08560000000000001
1984-12-13 23:00:00,4.109375,,4.109375,,4.109375,,0.04258555133079848,0.0858
1984-12-14 23:00:00,4.09375,,4.09375,,4.09375,,0.042748091603053436,0.0839
1984-12-17 23:00:00,4.0625,,4.0625,,4.0625,,0.043076923076923075,0.0824
1984-12-18 23:00:00,4.171875,,4.171875,,4.171875,,0.04194756554307116,0.0808
1984-12-19 23:00:00,4.15625,,4.15625,,4.15625,,0.042105263157894736,0.0797
1984-12-20 23:00:00,4.125,,4.125,,4.125,,0.04242424242424242,0.08070000000000001
1984-12-21 23:00:00,4.046875,,4.046875,,4.046875,,0.04324324324324324,0.0803
1984-12-24 23:00:00,4.109375,,4.109375,,4.109375,,0.04258555133079848,0.079
1984-12-26 23:00:00,4.046875,,4.046875,,4.046875,,0.04324324324324324,0.0789
1984-12-27 23:00:00,4.0625,,4.0625,,4.0625,,0.043076923076923075,0.0793
1984-12-28 23:00:00,4.046875,,4.046875,,4.046875,,0.04324324324324324,0.08
1984-12-31 23:00:00,4.109375,,4.109375,,4.109375,,0.04258555133079848,0.0812
1985-01-02 23:00:00,4.15625,,4.15625,,4.15625,,0.042105263157894736,0.081
1985-01-03 23:00:00,4.15625,,4.15625,,4.15625,,0.042105263157894736,0.08070000000000001
1985-01-04 23:00:00,4.125,,4.125,,4.125,,0.04242424242424242,0.0808
1985-01-07 23:00:00,4.171875,,4.171875,,4.171875,,0.04194756554307116,0.0806
1985-01-08 23:00:00,4.1875,,4.1875,,4.1875,,0.0417910447761194,0.0806
1985-01-09 23:00:00,4.21875,,4.21875,,4.21875,,0.04148148148148148,0.0795
1985-01-10 23:00:00,4.296875,,4.296875,,4.296875,,0.04072727272727272,0.08
1985-01-11 23:00:00,4.28125,,4.28125,,4.28125,,0.040875912408759124,0.0802
1985-01-14 23:00:00,4.328125,,4.328125,,4.328125,,0.04043321299638989,0.0796
1985-01-15 23:00:00,4.40625,,4.40625,,4.40625,,0.039716312056737584,0.0799
1985-01-16 23:00:00,4.515625,,4.515625,,4.515625,,0.03875432525951557,0.08
1985-01-17 23:00:00,4.5,,4.5,,4.5,,0.03888888888888889,0.08
1985-01-18 23:00:00,4.546875,,4.546875,,4.546875,,0.03848797250859106,0.08
1985-01-21 23:00:00,4.71875,,4.71875,,4.71875,,0.037086092715231785,0.08
1985-01-22 23:00:00,4.734375,,4.734375,,4.734375,,0.036963696369636964,0.0796
1985-01-23 23:00:00,4.765625,,4.765625,,4.765625,,0.036721311475409836,0.079
1985-01-24 23:00:00,4.734375,,4.734375,,4.734375,,0.036963696369636964,0.0788
1985-01-25 23:00:00,4.921875,,4.921875,,4.921875,,0.035555555555555556,0.0789
1985-01-28 23:00:00,5.0,,5.0,,5.0,,0.034999999999999996,0.07980000000000001
1985-01-29 23:00:00,4.96875,,4.96875,,4.96875,,0.03522012578616352,0.0809
1985-01-30 23:00:00,4.96875,,4.96875,,4.96875,,0.03522012578616352,0.081
1985-01-31 23:00:00,4.84375,,4.84375,,4.84375,,0.03612903225806451,0.0833
1985-02-01 23:00:00,4.78125,,4.78125,,4.78125,,0.03660130718954248,0.08470000000000001
1985-02-04 23:00:00,4.8125,,4.8125,,4.8125,,0.03636363636363636,0.08470000000000001
1985-02-05 23:00:00,4.78125,,4.78125,,4.78125,,0.03660130718954248,0.0843
1985-02-06 23:00:00,4.703125,,4.703125,,4.703125,,0.037209302325581395,0.08410000000000001
1985-02-07 23:00:00,4.78125,,4.78125,,4.78125,,0.03660130718954248,0.08460000000000001
1985-02-08 23:00:00,4.859375,,4.859375,,4.859375,,0.0360128617363344,0.0851
1985-02-11 23:00:00,4.796875,,4.796875,,4.796875,,0.046905537459283386,0.085
1985-02-12 23:00:00,4.734375,,4.734375,,4.734375,,0.04752475247524752,0.085
1985-02-13 23:00:00,4.734375,,4.734375,,4.734375,,0.039075907590759074,0.08529999999999999
1985-02-14 23:00:00,4.6875,,4.6875,,4.6875,,0.039466666666666664,0.0848
1985-02-15 23:00:00,4.625,,4.625,,4.625,,0.04,0.08470000000000001
1985-02-19 23:00:00,4.609375,,4.609375,,4.609375,,0.04013559322033898,0.08460000000000001
1985-02-20 23:00:00,4.59375,,4.59375,,4.59375,,0.040272108843537414,0.08529999999999999
1985-02-21 23:00:00,4.578125,,4.578125,,4.578125,,0.04040955631399317,0.0873
1985-02-22 23:00:00,4.59375,,4.59375,,4.59375,,0.040272108843537414,0.0868
1985-02-25 23:00:00,4.609375,,4.609375,,4.609375,,0.04013559322033898,0.08689999999999999
1985-02-26 23:00:00,4.640625,,4.640625,,4.640625,,0.03986531986531987,0.08650000000000001
1985-02-27 23:00:00,4.65625,,4.65625,,4.65625,,0.03973154362416107,0.0875
1985-02-28 23:00:00,4.71875,,4.71875,,4.71875,,0.03920529801324503,0.08810000000000001
1985-03-01 23:00:00,4.828125,,4.828125,,4.828125,,0.03831715210355987,0.0898
1985-03-04 23:00:00,4.765625,,4.765625,,4.765625,,0.038819672131147544,0.09050000000000001
1985-03-05 23:00:00,4.75,,4.75,,4.75,,0.03894736842105263,0.09
1985-03-06 23:00:00,4.8125,,4.8125,,4.8125,,0.03844155844155844,0.0901
1985-03-07 23:00:00,4.828125,,4.828125,,4.828125,,0.03831715210355987,0.09119999999999999
1985-03-08 23:00:00,4.90625,,4.90625,,4.90625,,0.037707006369426754,0.0889
1985-03-11 23:00:00,4.875,,4.875,,4.875,,0.03794871794871795,0.08789999999999999
1985-03-12 23:00:00,4.75,,4.75,,4.75,,0.03894736842105263,0.0885
1985-03-13 23:00:00,4.703125,,4.703125,,4.703125,,0.03933554817275747,0.0891
1985-03-14 23:00:00,4.796875,,4.796875,,4.796875,,0.038566775244299675,0.09050000000000001
1985-03-15 23:00:00,4.625,,4.625,,4.625,,0.04,0.08710000000000001
1985-03-18 23:00:00,4.671875,,4.671875,,4.671875,,0.03959866220735786,0.0883
1985-03-19 23:00:00,4.75,,4.75,,4.75,,0.03894736842105263,0.0886
1985-03-20 23:00:00,4.6875,,4.6875,,4.6875,,0.039466666666666664,0.08839999999999999
1985-03-21 23:00:00,4.671875,,4.671875,,4.671875,,0.03959866220735786,0.0875
1985-03-22 23:00:00,4.703125,,4.703125,,4.703125,,0.03933554817275747,0.0882
1985-03-25 23:00:00,4.703125,,4.703125,,4.703125,,0.03933554817275747,0.0874
1985-03-26 23:00:00,4.71875,,4.71875,,4.71875,,0.03920529801324503,0.0864
1985-03-27 23:00:00,4.734375,,4.734375,,4.734375,,0.039075907590759074,0.0863
1985-03-28 23:00:00,4.671875,,4.671875,,4.671875,,0.03959866220735786,0.0849
1985-03-29 23:00:00,4.65625,,4.65625,,4.65625,,0.03973154362416107,0.08470000000000001
1985-04-01 23:00:00,4.6875,,4.6875,,4.6875,,0.039466666666666664,0.08439999999999999
1985-04-02 23:00:00,4.703125,,4.703125,,4.703125,,0.03933554817275747,0.0851
1985-04-03 23:00:00,4.75,,4.75,,4.75,,0.03894736842105263,0.08449999999999999
1985-04-04 23:00:00,4.734375,,4.734375,,4.734375,,0.039075907590759074,0.08410000000000001
1985-04-08 23:00:00,4.734375,,4.734375,,4.734375,,0.039075907590759074,0.08410000000000001
1985-04-09 23:00:00,4.71875,,4.71875,,4.71875,,0.03920529801324503,0.0837
1985-04-10 23:00:00,4.6875,,4.6875,,4.6875,,0.039466666666666664,0.08380000000000001
1985-04-11 23:00:00,4.6875,,4.6875,,4.6875,,0.039466666666666664,0.0832
1985-04-12 23:00:00,4.65625,,4.65625,,4.65625,,0.03973154362416107,0.0833
1985-04-15 23:00:00,4.6875,,4.6875,,4.6875,,0.039466666666666664,0.08349999999999999
1985-04-16 23:00:00,4.625,,4.625,,4.625,,0.04,0.08199999999999999
1985-04-17 23:00:00,4.484375,,4.484375,,4.484375,,0.041254355400696864,0.0806
1985-04-18 23:00:00,4.421875,,4.421875,,4.421875,,0.04183745583038869,0.0797
1985-04-19 23:00:00,4.4375,,4.4375,,4.4375,,0.041690140845070424,0.0806
1985-04-22 23:00:00,4.40625,,4.40625,,4.40625,,0.04198581560283688,0.0793
1985-04-23 23:00:00,4.453125,,4.453125,,4.453125,,0.04154385964912281,0.0805
1985-04-24 23:00:00,4.390625,,4.390625,,4.390625,,0.04213523131672598,0.0801
1985-04-25 23:00:00,4.4375,,4.4375,,4.4375,,0.041690140845070424,0.081
1985-04-26 23:00:00,4.421875,,4.421875,,4.421875,,0.04183745583038869,0.0808
1985-04-29 23:00:00,4.390625,,4.390625,,4.390625,,0.04213523131672598,0.08109999999999999
1985-04-30 23:00:00,4.359375,,4.359375,,4.359375,,0.04243727598566308,0.0812
1985-05-01 23:00:00,4.34375,,4.34375,,4.34375,,0.042589928057553954,0.0801
1985-05-02 23:00:00,4.359375,,4.359375,,4.359375,,0.04243727598566308,0.0803
1985-05-03 23:00:00,4.390625,,4.390625,,4.390625,,0.04213523131672598,0.0799
1985-05-06 23:00:00,4.3125,,4.3125,,4.3125,,0.044057971014492756,0.08
1985-05-07 23:00:00,4.375,,4.375,,4.375,,0.04342857142857143,0.0803
1985-05-08 23:00:00,4.34375,,4.34375,,4.34375,,0.043741007194244605,0.0809
1985-05-09 23:00:00,4.40625,,4.40625,,4.40625,,0.04312056737588653,0.0801
1985-05-10 23:00:00,4.515625,,4.515625,,4.515625,,0.042076124567474046,0.08
1985-05-13 23:00:00,4.5,,4.5,,4.5,,0.042222222222222223,0.0797
1985-05-14 23:00:00,4.59375,,4.59375,,4.59375,,0.041360544217687076,0.0786
1985-05-15 23:00:00,4.640625,,4.640625,,4.640625,,0.04094276094276094,0.0768
1985-05-16 23:00:00,4.75,,4.75,,4.75,,0.04,0.0761
1985-05-17 23:00:00,4.84375,,4.84375,,4.84375,,0.0392258064516129,0.0764
1985-05-20 23:00:00,4.9375,,4.9375,,4.9375,,0.03848101265822785,0.075
1985-05-21 23:00:00,4.953125,,4.953125,,4.953125,,0.0383596214511041,0.0754
1985-05-22 23:00:00,4.9375,,4.9375,,4.9375,,0.03848101265822785,0.0753
1985-05-23 23:00:00,4.953125,,4.953125,,4.953125,,0.0383596214511041,0.07490000000000001
1985-05-24 23:00:00,4.921875,,4.921875,,4.921875,,0.038603174603174605,0.0742
1985-05-28 23:00:00,4.859375,,4.859375,,4.859375,,0.03909967845659164,0.0745
1985-05-29 23:00:00,4.875,,4.875,,4.875,,0.038974358974358976,0.0748
1985-05-30 23:00:00,4.875,,4.875,,4.875,,0.038974358974358976,0.0742
1985-05-31 23:00:00,4.890625,,4.890625,,4.890625,,0.03884984025559105,0.0738
1985-06-03 23:00:00,4.8125,,4.8125,,4.8125,,0.039480519480519484,0.0724
1985-06-04 23:00:00,4.921875,,4.921875,,4.921875,,0.038603174603174605,0.0718
1985-06-05 23:00:00,5.09375,,5.09375,,5.09375,,0.03730061349693251,0.07139999999999999
1985-06-06 23:00:00,5.109375,,5.109375,,5.109375,,0.03718654434250764,0.0721
1985-06-07 23:00:00,5.15625,,5.15625,,5.15625,,0.036848484848484846,0.0739
1985-06-10 23:00:00,5.125,,5.125,,5.125,,0.037073170731707315,0.07490000000000001
1985-06-11 23:00:00,5.109375,,5.109375,,5.109375,,0.03718654434250764,0.0738
1985-06-12 23:00:00,5.09375,,5.09375,,5.09375,,0.03730061349693251,0.0732
1985-06-13 23:00:00,5.09375,,5.09375,,5.09375,,0.03730061349693251,0.07200000000000001
1985-06-14 23:00:00,5.21875,,5.21875,,5.21875,,0.03640718562874252,0.0691
1985-06-17 23:00:00,5.25,,5.25,,5.25,,0.03619047619047619,0.0699
1985-06-18 23:00:00,5.1875,,5.1875,,5.1875,,0.03662650602409639,0.0687
1985-06-19 23:00:00,5.25,,5.25,,5.25,,0.03619047619047619,0.0695
1985-06-20 23:00:00,5.28125,,5.28125,,5.28125,,0.035976331360946745,0.0706
1985-06-21 23:00:00,5.296875,,5.296875,,5.296875,,0.03587020648967552,0.0727
1985-06-24 23:00:00,5.265625,,5.265625,,5.265625,,0.03608308605341246,0.0729
1985-06-25 23:00:00,5.203125,,5.203125,,5.203125,,0.036516516516516516,0.0732
1985-06-26 23:00:00,5.25,,5.25,,5.25,,0.03619047619047619,0.0721
1985-06-27 23:00:00,5.21875,,5.21875,,5.21875,,0.03640718562874252,0.0713
1985-06-28 23:00:00,5.234375,,5.234375,,5.234375,,0.03629850746268657,0.0705
1985-07-01 23:00:00,5.28125,,5.28125,,5.28125,,0.035976331360946745,0.0709
1985-07-02 23:00:00,5.3125,,5.3125,,5.3125,,0.03576470588235294,0.0717
1985-07-03 23:00:00,5.40625,,5.40625,,5.40625,,0.035144508670520234,0.0724
1985-07-05 23:00:00,5.421875,,5.421875,,5.421875,,0.03504322766570605,0.0699
1985-07-08 23:00:00,5.421875,,5.421875,,5.421875,,0.03504322766570605,0.07139999999999999
1985-07-09 23:00:00,5.390625,,5.390625,,5.390625,,0.035246376811594204,0.0718
1985-07-10 23:00:00,5.375,,5.375,,5.375,,0.035348837209302326,0.0716
1985-07-11 23:00:00,5.390625,,5.390625,,5.390625,,0.035246376811594204,0.0729
1985-07-12 23:00:00,5.453125,,5.453125,,5.453125,,0.034842406876790834,0.0732
1985-07-15 23:00:00,5.453125,,5.453125,,5.453125,,0.034842406876790834,0.0728
1985-07-16 23:00:00,5.5,,5.5,,5.5,,0.034545454545454546,0.0723
1985-07-17 23:00:00,5.671875,,5.671875,,5.671875,,0.03349862258953168,0.0721
1985-07-18 23:00:00,5.78125,,5.78125,,5.78125,,0.03286486486486487,0.0739
1985-07-19 23:00:00,5.875,,5.875,,5.875,,0.03234042553191489,0.0742
1985-07-22 23:00:00,5.765625,,5.765625,,5.765625,,0.03295392953929539,0.07490000000000001
1985-07-23 23:00:00,5.625,,5.625,,5.625,,0.03377777777777778,0.075
1985-07-24 23:00:00,5.53125,,5.53125,,5.53125,,0.034350282485875704,0.0748
1985-07-25 23:00:00,5.5625,,5.5625,,5.5625,,0.03415730337078652,0.0741
1985-07-26 23:00:00,5.71875,,5.71875,,5.71875,,0.033224043715846995,0.07429999999999999
1985-07-29 23:00:00,5.640625,,5.640625,,5.640625,,0.03368421052631579,0.075
1985-07-30 23:00:00,5.640625,,5.640625,,5.640625,,0.03368421052631579,0.07519999999999999
1985-07-31 23:00:00,5.671875,,5.671875,,5.671875,,0.03349862258953168,0.07519999999999999
1985-08-01 23:00:00,5.65625,,5.65625,,5.65625,,0.033591160220994475,0.07519999999999999
1985-08-02 23:00:00,5.6875,,5.6875,,5.6875,,0.03340659340659341,0.0755
1985-08-05 23:00:00,5.65625,,5.65625,,5.65625,,0.033591160220994475,0.07519999999999999
1985-08-06 23:00:00,5.5,,5.5,,5.5,,0.035454545454545454,0.075
1985-08-07 23:00:00,5.5,,5.5,,5.5,,0.035454545454545454,0.0741
1985-08-08 23:00:00,5.6875,,5.6875,,5.6875,,0.03428571428571429,0.0741
1985-08-09 23:00:00,5.640625,,5.640625,,5.640625,,0.034570637119113574,0.07400000000000001
1985-08-12 23:00:00,5.625,,5.625,,5.625,,0.034666666666666665,0.0733
1985-08-13 23:00:00,5.640625,,5.640625,,5.640625,,0.034570637119113574,0.0737
1985-08-14 23:00:00,5.65625,,5.65625,,5.65625,,0.03447513812154696,0.0732
1985-08-15 23:00:00,5.53125,,5.53125,,5.53125,,0.03525423728813559,0.07429999999999999
1985-08-16 23:00:00,5.421875,,5.421875,,5.421875,,0.03596541786743516,0.07339999999999999
1985-08-19 23:00:00,5.453125,,5.453125,,5.453125,,0.035759312320916906,0.0736
1985-08-20 23:00:00,5.546875,,5.546875,,5.546875,,0.03515492957746479,0.0735
1985-08-21 23:00:00,5.5625,,5.5625,,5.5625,,0.0350561797752809,0.0727
1985-08-22 23:00:00,5.5,,5.5,,5.5,,0.035454545454545454,0.0727
1985-08-23 23:00:00,5.484375,,5.484375,,5.484375,,0.035555555555555556,0.0727
1985-08-26 23:00:00,5.5,,5.5,,5.5,,0.035454545454545454,0.073
1985-08-27 23:00:00,5.5625,,5.5625,,5.5625,,0.0350561797752809,0.0728
1985-08-28 23:00:00,5.5,,5.5,,5.5,,0.035454545454545454,0.0729
1985-08-29 23:00:00,5.53125,,5.53125,,5.53125,,0.03525423728813559,0.0728
1985-08-30 23:00:00,5.53125,,5.53125,,5.53125,,0.03525423728813559,0.0738
1985-09-03 23:00:00,5.6875,,5.6875,,5.6875,,0.03428571428571429,0.0735
1985-09-04 23:00:00,5.671875,,5.671875,,5.671875,,0.0343801652892562,0.0728
1985-09-05 23:00:00,5.578125,,5.578125,,5.578125,,0.03495798319327731,0.0736
1985-09-06 23:00:00,5.546875,,5.546875,,5.546875,,0.03515492957746479,0.075
1985-09-09 23:00:00,5.5,,5.5,,5.5,,0.035454545454545454,0.075
1985-09-10 23:00:00,5.5,,5.5,,5.5,,0.035454545454545454,0.0747
1985-09-11 23:00:00,5.390625,,5.390625,,5.390625,,0.036173913043478265,0.0748
1985-09-12 23:00:00,5.375,,5.375,,5.375,,0.036279069767441864,0.0748
1985-09-13 23:00:00,5.421875,,5.421875,,5.421875,,0.03596541786743516,0.0745
1985-09-16 23:00:00,5.515625,,5.515625,,5.515625,,0.035354107648725215,0.0742
1985-09-17 23:00:00,5.609375,,5.609375,,5.609375,,0.03476323119777159,0.07440000000000001
1985-09-18 23:00:00,5.484375,,5.484375,,5.484375,,0.035555555555555556,0.07339999999999999
1985-09-19 23:00:00,5.484375,,5.484375,,5.484375,,0.035555555555555556,0.0732
1985-09-20 23:00:00,5.46875,,5.46875,,5.46875,,0.03565714285714286,0.0724
1985-09-23 23:00:00,5.59375,,5.59375,,5.59375,,0.03486033519553073,0.0712
1985-09-24 23:00:00,5.609375,,5.609375,,5.609375,,0.03476323119777159,0.0706
1985-09-25 23:00:00,5.609375,,5.609375,,5.609375,,0.03476323119777159,0.0709
1985-09-26 23:00:00,5.59375,,5.59375,,5.59375,,0.03486033519553073,0.0716
1985-09-30 23:00:00,5.625,,5.625,,5.625,,0.034666666666666665,0.0727
1985-10-01 23:00:00,5.703125,,5.703125,,5.703125,,0.03419178082191781,0.0726
1985-10-02 23:00:00,5.59375,,5.59375,,5.59375,,0.03486033519553073,0.0725
1985-10-03 23:00:00,5.609375,,5.609375,,5.609375,,0.03476323119777159,0.0722
1985-10-04 23:00:00,5.578125,,5.578125,,5.578125,,0.03495798319327731,0.0722
1985-10-07 23:00:00,5.40625,,5.40625,,5.40625,,0.036069364161849714,0.0732
1985-10-08 23:00:00,5.453125,,5.453125,,5.453125,,0.035759312320916906,0.0739
1985-10-09 23:00:00,5.4375,,5.4375,,5.4375,,0.03586206896551724,0.0742
1985-10-10 23:00:00,5.4375,,5.4375,,5.4375,,0.03586206896551724,0.0746
1985-10-11 23:00:00,5.46875,,5.46875,,5.46875,,0.03565714285714286,0.07429999999999999
1985-10-14 23:00:00,5.53125,,5.53125,,5.53125,,0.03525423728813559,0.07429999999999999
1985-10-15 23:00:00,5.59375,,5.59375,,5.59375,,0.03486033519553073,0.0748
1985-10-16 23:00:00,5.671875,,5.671875,,5.671875,,0.0343801652892562,0.0745
1985-10-17 23:00:00,5.6875,,5.6875,,5.6875,,0.03428571428571429,0.07429999999999999
1985-10-18 23:00:00,5.578125,,5.578125,,5.578125,,0.03495798319327731,0.07440000000000001
1985-10-21 23:00:00,5.65625,,5.65625,,5.65625,,0.03447513812154696,0.0746
1985-10-22 23:00:00,5.703125,,5.703125,,5.703125,,0.03419178082191781,0.0739
1985-10-23 23:00:00,5.671875,,5.671875,,5.671875,,0.0343801652892562,0.0746
1985-10-24 23:00:00,5.625,,5.625,,5.625,,0.034666666666666665,0.075
1985-10-25 23:00:00,5.609375,,5.609375,,5.609375,,0.03476323119777159,0.0748
1985-10-28 23:00:00,5.609375,,5.609375,,5.609375,,0.03476323119777159,0.0747
1985-10-29 23:00:00,5.65625,,5.65625,,5.65625,,0.03447513812154696,0.0745
1985-10-30 23:00:00,5.671875,,5.671875,,5.671875,,0.0343801652892562,0.0742
1985-10-31 23:00:00,5.6875,,5.6875,,5.6875,,0.03428571428571429,0.0742
1985-11-01 23:00:00,5.890625,,5.890625,,5.890625,,0.03310344827586207,0.07440000000000001
1985-11-04 23:00:00,5.90625,,5.90625,,5.90625,,0.0253968253968254,0.0748
1985-11-05 23:00:00,6.015625,,6.015625,,6.015625,,0.03407792207792208,0.0748
1985-11-06 23:00:00,6.046875,,6.046875,,6.046875,,0.033901808785529716,0.07490000000000001
1985-11-07 23:00:00,6.15625,,6.15625,,6.15625,,0.033299492385786805,0.0754
1985-11-08 23:00:00,6.09375,,6.09375,,6.09375,,0.03364102564102564,0.0746
1985-11-11 23:00:00,6.15625,,6.15625,,6.15625,,0.033299492385786805,0.0746
1985-11-12 23:00:00,6.234375,,6.234375,,6.234375,,0.032882205513784464,0.0746
1985-11-13 23:00:00,6.140625,,6.140625,,6.140625,,0.03338422391857507,0.07519999999999999
1985-11-14 23:00:00,6.171875,,6.171875,,6.171875,,0.033215189873417726,0.0756
1985-11-15 23:00:00,6.203125,,6.203125,,6.203125,,0.033047858942065494,0.0759
1985-11-18 23:00:00,6.296875,,6.296875,,6.296875,,0.032555831265508685,0.0748
1985-11-19 23:00:00,6.421875,,6.421875,,6.421875,,0.03192214111922141,0.0745
1985-11-20 23:00:00,6.375,,6.375,,6.375,,0.03215686274509804,0.07490000000000001
1985-11-21 23:00:00,6.375,,6.375,,6.375,,0.03215686274509804,0.0747
1985-11-22 23:00:00,6.21875,,6.21875,,6.21875,,0.03296482412060302,0.0747
1985-11-25 23:00:00,6.265625,,6.265625,,6.265625,,0.03271820448877806,0.07440000000000001
1985-11-26 23:00:00,6.15625,,6.15625,,6.15625,,0.033299492385786805,0.07429999999999999
1985-11-27 23:00:00,6.28125,,6.28125,,6.28125,,0.032636815920398014,0.0741
1985-11-29 23:00:00,6.234375,,6.234375,,6.234375,,0.032882205513784464,0.0739
1985-12-02 23:00:00,6.203125,,6.203125,,6.203125,,0.033047858942065494,0.075
1985-12-03 23:00:00,6.1875,,6.1875,,6.1875,,0.033131313131313136,0.0747
1985-12-04 23:00:00,6.171875,,6.171875,,6.171875,,0.033215189873417726,0.0746
1985-12-05 23:00:00,5.9375,,5.9375,,5.9375,,0.03452631578947369,0.075
1985-12-06 23:00:00,5.859375,,5.859375,,5.859375,,0.034986666666666666,0.0748
1985-12-09 23:00:00,5.96875,,5.96875,,5.96875,,0.0343455497382199,0.07440000000000001
1985-12-10 23:00:00,5.953125,,5.953125,,5.953125,,0.034435695538057746,0.0741
1985-12-11 23:00:00,5.984375,,5.984375,,5.984375,,0.03425587467362925,0.0728
1985-12-12 23:00:00,5.984375,,5.984375,,5.984375,,0.03425587467362925,0.0731
1985-12-13 23:00:00,6.203125,,6.203125,,6.203125,,0.033047858942065494,0.07200000000000001
1985-12-16 23:00:00,6.34375,,6.34375,,6.34375,,0.032315270935960594,0.0725
1985-12-17 23:00:00,6.359375,,6.359375,,6.359375,,0.03223587223587224,0.0723
1985-12-18 23:00:00,6.34375,,6.34375,,6.34375,,0.032315270935960594,0.0736
1985-12-19 23:00:00,6.296875,,6.296875,,6.296875,,0.032555831265508685,0.0733
1985-12-20 23:00:00,6.375,,6.375,,6.375,,0.03215686274509804,0.0727
1985-12-23 23:00:00,6.359375,,6.359375,,6.359375,,0.03223587223587224,0.073
1985-12-24 23:00:00,6.140625,,6.140625,,6.140625,,0.03338422391857507,0.0728
1985-12-26 23:00:00,6.109375,,6.109375,,6.109375,,0.03355498721227622,0.0723
1985-12-27 23:00:00,6.1875,,6.1875,,6.1875,,0.033131313131313136,0.0718
1985-12-30 23:00:00,6.265625,,6.265625,,6.265625,,0.03271820448877806,0.0717
1985-12-31 23:00:00,6.375,,6.375,,6.375,,0.03215686274509804,0.0728
1986-01-02 23:00:00,6.328125,,6.328125,,6.328125,,0.03239506172839506,0.0733
1986-01-03 23:00:00,6.296875,,6.296875,,6.296875,,0.032555831265508685,0.0729
1986-01-06 23:00:00,6.1875,,6.1875,,6.1875,,0.033131313131313136,0.0729
1986-01-07 23:00:00,6.125,,6.125,,6.125,,0.03346938775510205,0.0726
1986-01-08 23:00:00,5.71875,,5.71875,,5.71875,,0.03584699453551913,0.07400000000000001
1986-01-09 23:00:00,5.828125,,5.828125,,5.828125,,0.035174262734584454,0.0741
1986-01-10 23:00:00,5.78125,,5.78125,,5.78125,,0.03545945945945946,0.07440000000000001
1986-01-13 23:00:00,5.78125,,5.78125,,5.78125,,0.03545945945945946,0.0748
1986-01-14 23:00:00,5.765625,,5.765625,,5.765625,,0.035555555555555556,0.0748
1986-01-15 23:00:00,5.90625,,5.90625,,5.90625,,0.03470899470899471,0.0742
1986-01-16 23:00:00,5.984375,,5.984375,,5.984375,,0.03425587467362925,0.0731
1986-01-17 23:00:00,6.015625,,6.015625,,6.015625,,0.03407792207792208,0.0733
1986-01-20 23:00:00,5.96875,,5.96875,,5.96875,,0.0343455497382199,0.0733
1986-01-21 23:00:00,5.921875,,5.921875,,5.921875,,0.03461741424802111,0.0725
1986-01-22 23:00:00,5.8125,,5.8125,,5.8125,,0.03526881720430108,0.0723
1986-01-23 23:00:00,5.828125,,5.828125,,5.828125,,0.035174262734584454,0.0719
1986-01-24 23:00:00,5.953125,,5.953125,,5.953125,,0.034435695538057746,0.0719
1986-01-27 23:00:00,5.96875,,5.96875,,5.96875,,0.0343455497382199,0.0718
1986-01-28 23:00:00,5.953125,,5.953125,,5.953125,,0.034435695538057746,0.07139999999999999
1986-01-29 23:00:00,6.03125,,6.03125,,6.03125,,0.03398963730569948,0.0726
1986-01-30 23:00:00,6.0625,,6.0625,,6.0625,,0.033814432989690724,0.0727
1986-01-31 23:00:00,6.140625,,6.140625,,6.140625,,0.03338422391857507,0.0719
1986-02-03 23:00:00,6.203125,,6.203125,,6.203125,,0.033047858942065494,0.0722
1986-02-04 23:00:00,6.234375,,6.234375,,6.234375,,0.032882205513784464,0.07200000000000001
1986-02-05 23:00:00,6.3125,,6.3125,,6.3125,,0.032475247524752476,0.0724
1986-02-06 23:00:00,6.421875,,6.421875,,6.421875,,0.03192214111922141,0.0733
1986-02-07 23:00:00,6.53125,,6.53125,,6.53125,,0.03138755980861244,0.07440000000000001
1986-02-10 23:00:00,6.703125,,6.703125,,6.703125,,0.030582750582750586,0.07429999999999999
1986-02-11 23:00:00,6.875,,6.875,,6.875,,0.03054545454545455,0.07339999999999999
1986-02-12 23:00:00,6.75,,6.75,,6.75,,0.031111111111111114,0.07339999999999999
1986-02-13 23:00:00,6.875,,6.875,,6.875,,0.03054545454545455,0.0733
1986-02-14 23:00:00,6.96875,,6.96875,,6.96875,,0.030134529147982064,0.0724
1986-02-18 23:00:00,7.125,,7.125,,7.125,,0.02947368421052632,0.0724
1986-02-19 23:00:00,7.171875,,7.171875,,7.171875,,0.02928104575163399,0.0731
1986-02-20 23:00:00,7.15625,,7.15625,,7.15625,,0.029344978165938868,0.07339999999999999
1986-02-21 23:00:00,7.265625,,7.265625,,7.265625,,0.028903225806451615,0.07200000000000001
1986-02-24 23:00:00,7.296875,,7.296875,,7.296875,,0.02877944325481799,0.0724
1986-02-25 23:00:00,7.21875,,7.21875,,7.21875,,0.029090909090909094,0.0728
1986-02-26 23:00:00,7.28125,,7.28125,,7.28125,,0.0288412017167382,0.073
1986-02-27 23:00:00,7.328125,,7.328125,,7.328125,,0.02865671641791045,0.0726
1986-02-28 23:00:00,7.6875,,7.6875,,7.6875,,0.02731707317073171,0.0724
1986-03-03 23:00:00,7.453125,,7.453125,,7.453125,,0.02817610062893082,0.0719
1986-03-04 23:00:00,7.53125,,7.53125,,7.53125,,0.027883817427385896,0.0706
1986-03-05 23:00:00,7.5625,,7.5625,,7.5625,,0.027768595041322317,0.0707
1986-03-06 23:00:00,7.984375,,7.984375,,7.984375,,0.0263013698630137,0.069
1986-03-07 23:00:00,7.90625,,7.90625,,7.90625,,0.02656126482213439,0.0681
1986-03-10 23:00:00,7.71875,,7.71875,,7.71875,,0.027206477732793524,0.0681
1986-03-11 23:00:00,7.890625,,7.890625,,7.890625,,0.026613861386138617,0.0677
1986-03-12 23:00:00,8.03125,,8.03125,,8.03125,,0.026147859922178992,0.0683
1986-03-13 23:00:00,8.09375,,8.09375,,8.09375,,0.025945945945945948,0.068
1986-03-14 23:00:00,8.0625,,8.0625,,8.0625,,0.026046511627906978,0.0674
1986-03-17 23:00:00,7.984375,,7.984375,,7.984375,,0.0263013698630137,0.0677
1986-03-18 23:00:00,7.953125,,7.953125,,7.953125,,0.02640471512770138,0.0674
1986-03-19 23:00:00,7.90625,,7.90625,,7.90625,,0.02656126482213439,0.0669
1986-03-20 23:00:00,8.0625,,8.0625,,8.0625,,0.026046511627906978,0.0664
1986-03-21 23:00:00,8.15625,,8.15625,,8.15625,,0.025747126436781613,0.0661
1986-03-24 23:00:00,8.203125,,8.203125,,8.203125,,0.0256,0.0661
1986-03-25 23:00:00,8.109375,,8.109375,,8.109375,,0.025895953757225434,0.06570000000000001
1986-03-26 23:00:00,8.046875,,8.046875,,8.046875,,0.02609708737864078,0.0661
1986-03-27 23:00:00,8.015625,,8.015625,,8.015625,,0.02619883040935673,0.0653
1986-03-31 23:00:00,8.078125,,8.078125,,8.078125,,0.025996131528046425,0.0653
1986-04-01 23:00:00,8.015625,,8.015625,,8.015625,,0.02619883040935673,0.0652
1986-04-02 23:00:00,8.046875,,8.046875,,8.046875,,0.02609708737864078,0.0653
1986-04-03 23:00:00,7.96875,,7.96875,,7.96875,,0.02635294117647059,0.0652
1986-04-04 23:00:00,7.59375,,7.59375,,7.59375,,0.027654320987654323,0.0641
1986-04-07 23:00:00,7.65625,,7.65625,,7.65625,,0.02742857142857143,0.0643
1986-04-08 23:00:00,7.75,,7.75,,7.75,,0.02709677419354839,0.06309999999999999
1986-04-09 23:00:00,7.625,,7.625,,7.625,,0.02754098360655738,0.061900000000000004
1986-04-10 23:00:00,7.59375,,7.59375,,7.59375,,0.027654320987654323,0.062
1986-04-11 23:00:00,7.625,,7.625,,7.625,,0.02754098360655738,0.0613
1986-04-14 23:00:00,7.625,,7.625,,7.625,,0.02754098360655738,0.060899999999999996
1986-04-15 23:00:00,7.640625,,7.640625,,7.640625,,0.027484662576687118,0.059800000000000006
1986-04-16 23:00:00,8.25,,8.25,,8.25,,0.025454545454545455,0.0594
1986-04-17 23:00:00,8.0,,8.0,,8.0,,0.026250000000000002,0.0601
1986-04-18 23:00:00,8.03125,,8.03125,,8.03125,,0.026147859922178992,0.0604
1986-04-21 23:00:00,8.078125,,8.078125,,8.078125,,0.025996131528046425,0.0604
1986-04-22 23:00:00,8.25,,8.25,,8.25,,0.025454545454545455,0.061200000000000004
1986-04-23 23:00:00,8.25,,8.25,,8.25,,0.025454545454545455,0.06269999999999999
1986-04-24 23:00:00,8.203125,,8.203125,,8.203125,,0.0256,0.0629
1986-04-25 23:00:00,8.234375,,8.234375,,8.234375,,0.02550284629981025,0.0632
1986-04-28 23:00:00,8.234375,,8.234375,,8.234375,,0.02550284629981025,0.0629
1986-04-29 23:00:00,8.09375,,8.09375,,8.09375,,0.025945945945945948,0.06269999999999999
1986-04-30 23:00:00,8.125,,8.125,,8.125,,0.02584615384615385,0.06280000000000001
1986-05-01 23:00:00,8.234375,,8.234375,,8.234375,,0.02550284629981025,0.0629
1986-05-02 23:00:00,8.203125,,8.203125,,8.203125,,0.0256,0.0633
1986-05-05 23:00:00,8.21875,,8.21875,,8.21875,,0.02555133079847909,0.062400000000000004
1986-05-06 23:00:00,8.09375,,8.09375,,8.09375,,0.027181467181467182,0.0623
1986-05-07 23:00:00,8.234375,,8.234375,,8.234375,,0.026717267552182164,0.0622
1986-05-08 23:00:00,8.046875,,8.046875,,8.046875,,0.02733980582524272,0.0622
1986-05-09 23:00:00,7.921875,,7.921875,,7.921875,,0.02777120315581854,0.0623
1986-05-12 23:00:00,7.796875,,7.796875,,7.796875,,0.028216432865731462,0.0632
1986-05-13 23:00:00,7.703125,,7.703125,,7.703125,,0.028559837728194728,0.06269999999999999
1986-05-14 23:00:00,7.625,,7.625,,7.625,,0.028852459016393443,0.06269999999999999
1986-05-15 23:00:00,7.46875,,7.46875,,7.46875,,0.029456066945606693,0.0635
1986-05-16 23:00:00,7.5,,7.5,,7.5,,0.029333333333333333,0.064
1986-05-19 23:00:00,7.609375,,7.609375,,7.609375,,0.02891170431211499,0.0639
1986-05-20 23:00:00,7.734375,,7.734375,,7.734375,,0.028444444444444446,0.0642
1986-05-21 23:00:00,7.75,,7.75,,7.75,,0.02838709677419355,0.0639
1986-05-22 23:00:00,7.90625,,7.90625,,7.90625,,0.02782608695652174,0.0639
1986-05-23 23:00:00,8.015625,,8.015625,,8.015625,,0.027446393762183236,0.0636
1986-05-27 23:00:00,7.984375,,7.984375,,7.984375,,0.02755381604696673,0.0635
1986-05-28 23:00:00,7.953125,,7.953125,,7.953125,,0.027662082514734773,0.0638
1986-05-29 23:00:00,7.9375,,7.9375,,7.9375,,0.027716535433070868,0.0649
1986-05-30 23:00:00,7.890625,,7.890625,,7.890625,,0.02788118811881188,0.0649
1986-06-02 23:00:00,7.953125,,7.953125,,7.953125,,0.027662082514734773,0.06559999999999999
1986-06-03 23:00:00,7.953125,,7.953125,,7.953125,,0.027662082514734773,0.0661
1986-06-04 23:00:00,8.09375,,8.09375,,8.09375,,0.027181467181467182,0.0672
1986-06-05 23:00:00,8.109375,,8.109375,,8.109375,,0.027129094412331408,0.06709999999999999
1986-06-06 23:00:00,7.921875,,7.921875,,7.921875,,0.02777120315581854,0.06509999999999999
1986-06-09 23:00:00,7.625,,7.625,,7.625,,0.028852459016393443,0.06559999999999999
1986-06-10 23:00:00,7.65625,,7.65625,,7.65625,,0.02873469387755102,0.0647
1986-06-11 23:00:00,7.71875,,7.71875,,7.71875,,0.028502024291497976,0.0653
1986-06-12 23:00:00,7.859375,,7.859375,,7.859375,,0.027992047713717695,0.0647
1986-06-13 23:00:00,8.03125,,8.03125,,8.03125,,0.027392996108949415,0.0636
1986-06-16 23:00:00,8.0625,,8.0625,,8.0625,,0.027286821705426356,0.06309999999999999
1986-06-17 23:00:00,7.96875,,7.96875,,7.96875,,0.027607843137254902,0.06269999999999999
1986-06-18 23:00:00,7.921875,,7.921875,,7.921875,,0.02777120315581854,0.06269999999999999
1986-06-19 23:00:00,7.78125,,7.78125,,7.78125,,0.028273092369477913,0.0629
1986-06-20 23:00:00,7.84375,,7.84375,,7.84375,,0.02804780876494024,0.06280000000000001
1986-06-23 23:00:00,7.90625,,7.90625,,7.90625,,0.02782608695652174,0.063
1986-06-24 23:00:00,8.0625,,8.0625,,8.0625,,0.027286821705426356,0.0626
1986-06-25 23:00:00,8.171875,,8.171875,,8.171875,,0.026921606118546847,0.0626
1986-06-26 23:00:00,8.6875,,8.6875,,8.6875,,0.025323741007194246,0.0626
1986-06-27 23:00:00,8.59375,,8.59375,,8.59375,,0.0256,0.062
1986-06-30 23:00:00,8.515625,,8.515625,,8.515625,,0.0258348623853211,0.0613
1986-07-01 23:00:00,8.53125,,8.53125,,8.53125,,0.025787545787545788,0.0617
1986-07-02 23:00:00,8.46875,,8.46875,,8.46875,,0.025977859778597786,0.061799999999999994
1986-07-03 23:00:00,8.421875,,8.421875,,8.421875,,0.026122448979591838,0.0608
1986-07-07 23:00:00,8.15625,,8.15625,,8.15625,,0.026973180076628352,0.0604
1986-07-08 23:00:00,7.9375,,7.9375,,7.9375,,0.027716535433070868,0.0611
1986-07-09 23:00:00,7.921875,,7.921875,,7.921875,,0.02777120315581854,0.0605
1986-07-10 23:00:00,7.84375,,7.84375,,7.84375,,0.02804780876494024,0.0602
1986-07-11 23:00:00,7.875,,7.875,,7.875,,0.027936507936507936,0.0592
1986-07-14 23:00:00,7.765625,,7.765625,,7.765625,,0.028329979879275654,0.0594
1986-07-15 23:00:00,7.53125,,7.53125,,7.53125,,0.029211618257261412,0.0594
1986-07-16 23:00:00,7.515625,,7.515625,,7.515625,,0.02927234927234927,0.0594
1986-07-17 23:00:00,7.640625,,7.640625,,7.640625,,0.028793456032719836,0.0592
1986-07-18 23:00:00,7.78125,,7.78125,,7.78125,,0.028273092369477913,0.0588
1986-07-21 23:00:00,7.71875,,7.71875,,7.71875,,0.028502024291497976,0.058899999999999994
1986-07-22 23:00:00,7.875,,7.875,,7.875,,0.027936507936507936,0.058899999999999994
1986-07-23 23:00:00,7.96875,,7.96875,,7.96875,,0.027607843137254902,0.059800000000000006
1986-07-24 23:00:00,8.0625,,8.0625,,8.0625,,0.027286821705426356,0.059800000000000006
1986-07-25 23:00:00,8.09375,,8.09375,,8.09375,,0.027181467181467182,0.059800000000000006
1986-07-28 23:00:00,7.8125,,7.8125,,7.8125,,0.02816,0.060700000000000004
1986-07-29 23:00:00,7.78125,,7.78125,,7.78125,,0.028273092369477913,0.0603
1986-07-30 23:00:00,7.703125,,7.703125,,7.703125,,0.028559837728194728,0.0602
1986-07-31 23:00:00,7.703125,,7.703125,,7.703125,,0.028559837728194728,0.0596
1986-08-01 23:00:00,7.59375,,7.59375,,7.59375,,0.02897119341563786,0.0594
1986-08-04 23:00:00,7.859375,,7.859375,,7.859375,,0.027992047713717695,0.0588
1986-08-05 23:00:00,7.71875,,7.71875,,7.71875,,0.0362753036437247,0.0587
1986-08-06 23:00:00,7.5625,,7.5625,,7.5625,,0.030413223140495868,0.0588
1986-08-07 23:00:00,7.5,,7.5,,7.5,,0.030666666666666665,0.058899999999999994
1986-08-08 23:00:00,7.53125,,7.53125,,7.53125,,0.030539419087136928,0.058600000000000006
1986-08-11 23:00:00,7.859375,,7.859375,,7.859375,,0.029264413518886676,0.0584
1986-08-12 23:00:00,7.921875,,7.921875,,7.921875,,0.02903353057199211,0.057699999999999994
1986-08-13 23:00:00,8.1875,,8.1875,,8.1875,,0.028091603053435114,0.057300000000000004
1986-08-14 23:00:00,8.234375,,8.234375,,8.234375,,0.02793168880455408,0.0575
1986-08-15 23:00:00,8.265625,,8.265625,,8.265625,,0.027826086956521737,0.0571
1986-08-18 23:00:00,8.21875,,8.21875,,8.21875,,0.027984790874524712,0.057699999999999994
1986-08-19 23:00:00,8.171875,,8.171875,,8.171875,,0.0281453154875717,0.0572
1986-08-20 23:00:00,8.359375,,8.359375,,8.359375,,0.027514018691588784,0.056600000000000004
1986-08-21 23:00:00,8.4375,,8.4375,,8.4375,,0.027259259259259257,0.0552
1986-08-22 23:00:00,8.375,,8.375,,8.375,,0.027462686567164177,0.055099999999999996
1986-08-25 23:00:00,8.296875,,8.296875,,8.296875,,0.027721280602636532,0.054299999999999994
1986-08-26 23:00:00,8.46875,,8.46875,,8.46875,,0.027158671586715866,0.054400000000000004
1986-08-27 23:00:00,8.53125,,8.53125,,8.53125,,0.026959706959706956,0.0547
1986-08-28 23:00:00,8.640625,,8.640625,,8.640625,,0.026618444846292947,0.054400000000000004
1986-08-29 23:00:00,8.71875,,8.71875,,8.71875,,0.026379928315412183,0.053099999999999994
1986-09-02 23:00:00,8.46875,,8.46875,,8.46875,,0.027158671586715866,0.0533
1986-09-03 23:00:00,8.625,,8.625,,8.625,,0.026666666666666665,0.0538
1986-09-04 23:00:00,8.890625,,8.890625,,8.890625,,0.02586994727592267,0.0533
1986-09-05 23:00:00,8.671875,,8.671875,,8.671875,,0.02652252252252252,0.0537
1986-09-08 23:00:00,8.75,,8.75,,8.75,,0.026285714285714284,0.053899999999999997
1986-09-09 23:00:00,8.65625,,8.65625,,8.65625,,0.026570397111913356,0.053399999999999996
1986-09-10 23:00:00,8.8125,,8.8125,,8.8125,,0.02609929078014184,0.053
1986-09-11 23:00:00,8.46875,,8.46875,,8.46875,,0.027158671586715866,0.0535
1986-09-12 23:00:00,8.34375,,8.34375,,8.34375,,0.027565543071161047,0.053099999999999994
1986-09-15 23:00:00,8.4375,,8.4375,,8.4375,,0.027259259259259257,0.053200000000000004
1986-09-16 23:00:00,8.453125,,8.453125,,8.453125,,0.02720887245841035,0.0527
1986-09-17 23:00:00,8.34375,,8.34375,,8.34375,,0.027565543071161047,0.0526
1986-09-18 23:00:00,8.359375,,8.359375,,8.359375,,0.027514018691588784,0.0537
1986-09-19 23:00:00,8.421875,,8.421875,,8.421875,,0.027309833024118737,0.054000000000000006
1986-09-22 23:00:00,8.421875,,8.421875,,8.421875,,0.027309833024118737,0.054000000000000006
1986-09-23 23:00:00,8.546875,,8.546875,,8.546875,,0.026910420475319923,0.054000000000000006
1986-09-24 23:00:00,8.5625,,8.5625,,8.5625,,0.026861313868613138,0.0538
1986-09-25 23:00:00,8.375,,8.375,,8.375,,0.027462686567164177,0.0537
1986-09-26 23:00:00,8.3125,,8.3125,,8.3125,,0.027669172932330826,0.0538
1986-09-29 23:00:00,8.0,,8.0,,8.0,,0.028749999999999998,0.0541
1986-09-30 23:00:00,8.015625,,8.015625,,8.015625,,0.028693957115009744,0.053399999999999996
1986-10-01 23:00:00,8.125,,8.125,,8.125,,0.028307692307692305,0.0533
1986-10-02 23:00:00,8.109375,,8.109375,,8.109375,,0.028362235067437378,0.0533
1986-10-03 23:00:00,8.078125,,8.078125,,8.078125,,0.028471953578336553,0.052300000000000006
1986-10-06 23:00:00,8.0625,,8.0625,,8.0625,,0.028527131782945733,0.0519
1986-10-07 23:00:00,8.078125,,8.078125,,8.078125,,0.028471953578336553,0.052000000000000005
1986-10-08 23:00:00,8.1875,,8.1875,,8.1875,,0.028091603053435114,0.0518
1986-10-09 23:00:00,8.21875,,8.21875,,8.21875,,0.027984790874524712,0.052000000000000005
1986-10-10 23:00:00,8.15625,,8.15625,,8.15625,,0.028199233716475095,0.052000000000000005
1986-10-13 23:00:00,8.09375,,8.09375,,8.09375,,0.028416988416988413,0.052000000000000005
1986-10-14 23:00:00,8.21875,,8.21875,,8.21875,,0.027984790874524712,0.0528
1986-10-15 23:00:00,8.46875,,8.46875,,8.46875,,0.027158671586715866,0.053200000000000004
1986-10-16 23:00:00,8.5625,,8.5625,,8.5625,,0.026861313868613138,0.053399999999999996
1986-10-17 23:00:00,8.609375,,8.609375,,8.609375,,0.026715063520871142,0.0542
1986-10-20 23:00:00,8.5,,8.5,,8.5,,0.027058823529411764,0.0547
1986-10-21 23:00:00,8.453125,,8.453125,,8.453125,,0.02720887245841035,0.0546
1986-10-22 23:00:00,8.5625,,8.5625,,8.5625,,0.026861313868613138,0.0545
1986-10-23 23:00:00,8.625,,8.625,,8.625,,0.026666666666666665,0.0541
1986-10-24 23:00:00,8.578125,,8.578125,,8.578125,,0.026812386156648448,0.0542
1986-10-27 23:00:00,8.5625,,8.5625,,8.5625,,0.026861313868613138,0.053399999999999996
1986-10-28 23:00:00,8.609375,,8.609375,,8.609375,,0.026715063520871142,0.053399999999999996
1986-10-29 23:00:00,8.734375,,8.734375,,8.734375,,0.026332737030411446,0.053399999999999996
1986-10-30 23:00:00,8.703125,,8.703125,,8.703125,,0.026427289048473964,0.053200000000000004
1986-10-31 23:00:00,8.640625,,8.640625,,8.640625,,0.026618444846292947,0.053399999999999996
1986-11-03 23:00:00,8.75,,8.75,,8.75,,0.026285714285714284,0.0536
1986-11-04 23:00:00,8.671875,,8.671875,,8.671875,,0.03344144144144144,0.054000000000000006
1986-11-05 23:00:00,8.796875,,8.796875,,8.796875,,0.026714031971580815,0.054000000000000006
1986-11-06 23:00:00,8.8125,,8.8125,,8.8125,,0.026666666666666665,0.0541
1986-11-07 23:00:00,8.84375,,8.84375,,8.84375,,0.02657243816254417,0.0547
1986-11-10 23:00:00,8.734375,,8.734375,,8.734375,,0.026905187835420393,0.0558
1986-11-11 23:00:00,8.78125,,8.78125,,8.78125,,0.02676156583629893,0.0558
1986-11-12 23:00:00,8.71875,,8.71875,,8.71875,,0.026953405017921147,0.0555
1986-11-13 23:00:00,8.6875,,8.6875,,8.6875,,0.027050359712230215,0.0555
1986-11-14 23:00:00,8.890625,,8.890625,,8.890625,,0.026432337434094903,0.0555
1986-11-17 23:00:00,8.75,,8.75,,8.75,,0.026857142857142857,0.0556
1986-11-18 23:00:00,8.578125,,8.578125,,8.578125,,0.027395264116575592,0.055
1986-11-19 23:00:00,8.75,,8.75,,8.75,,0.026857142857142857,0.0548
1986-11-20 23:00:00,8.734375,,8.734375,,8.734375,,0.026905187835420393,0.0553
1986-11-21 23:00:00,8.78125,,8.78125,,8.78125,,0.02676156583629893,0.055099999999999996
1986-11-24 23:00:00,8.859375,,8.859375,,8.859375,,0.026525573192239856,0.0553
1986-11-25 23:00:00,9.0625,,9.0625,,9.0625,,0.02593103448275862,0.0554
1986-11-26 23:00:00,9.203125,,9.203125,,9.203125,,0.025534804753820032,0.0554
1986-11-28 23:00:00,9.28125,,9.28125,,9.28125,,0.02531986531986532,0.0554
1986-12-01 23:00:00,9.234375,,9.234375,,9.234375,,0.02544839255499154,0.0557
1986-12-02 23:00:00,9.40625,,9.40625,,9.40625,,0.024983388704318935,0.0556
1986-12-03 23:00:00,9.5625,,9.5625,,9.5625,,0.02457516339869281,0.0556
1986-12-04 23:00:00,9.46875,,9.46875,,9.46875,,0.024818481848184817,0.0555
1986-12-05 23:00:00,9.359375,,9.359375,,9.359375,,0.025108514190317194,0.0559
1986-12-08 23:00:00,9.359375,,9.359375,,9.359375,,0.025108514190317194,0.056600000000000004
1986-12-09 23:00:00,9.21875,,9.21875,,9.21875,,0.025491525423728813,0.056299999999999996
1986-12-10 23:00:00,9.34375,,9.34375,,9.34375,,0.0251505016722408,0.0564
1986-12-11 23:00:00,9.25,,9.25,,9.25,,0.025405405405405403,0.0564
1986-12-12 23:00:00,9.1875,,9.1875,,9.1875,,0.025578231292517007,0.0564
1986-12-15 23:00:00,9.078125,,9.078125,,9.078125,,0.02588640275387263,0.056600000000000004
1986-12-16 23:00:00,9.21875,,9.21875,,9.21875,,0.025491525423728813,0.0574
1986-12-17 23:00:00,9.28125,,9.28125,,9.28125,,0.02531986531986532,0.057999999999999996
1986-12-18 23:00:00,9.15625,,9.15625,,9.15625,,0.025665529010238906,0.0576
1986-12-19 23:00:00,9.375,,9.375,,9.375,,0.025066666666666664,0.056600000000000004
1986-12-22 23:00:00,9.21875,,9.21875,,9.21875,,0.025491525423728813,0.056900000000000006
1986-12-23 23:00:00,9.203125,,9.203125,,9.203125,,0.025534804753820032,0.0571
1986-12-24 23:00:00,9.1875,,9.1875,,9.1875,,0.025578231292517007,0.057300000000000004
1986-12-26 23:00:00,9.171875,,9.171875,,9.171875,,0.02562180579216354,0.0572
1986-12-29 23:00:00,9.15625,,9.15625,,9.15625,,0.025665529010238906,0.0583
1986-12-30 23:00:00,9.03125,,9.03125,,9.03125,,0.026020761245674737,0.058499999999999996
1986-12-31 23:00:00,9.109375,,9.109375,,9.109375,,0.025797598627787306,0.0583
1987-01-02 23:00:00,9.3125,,9.3125,,9.3125,,0.02523489932885906,0.057
1987-01-05 23:00:00,9.421875,,9.421875,,9.421875,,0.024941956882255388,0.0571
1987-01-06 23:00:00,9.421875,,9.421875,,9.421875,,0.024941956882255388,0.0567
1987-01-07 23:00:00,9.5625,,9.5625,,9.5625,,0.02457516339869281,0.0558
1987-01-08 23:00:00,9.75,,9.75,,9.75,,0.0241025641025641,0.0558
1987-01-09 23:00:00,9.8125,,9.8125,,9.8125,,0.02394904458598726,0.0553
1987-01-12 23:00:00,10.15625,,10.15625,,10.15625,,0.02313846153846154,0.0552
1987-01-13 23:00:00,10.03125,,10.03125,,10.03125,,0.023426791277258566,0.055099999999999996
1987-01-14 23:00:00,10.078125,,10.078125,,10.078125,,0.02331782945736434,0.055
1987-01-15 23:00:00,10.125,,10.125,,10.125,,0.023209876543209874,0.055099999999999996
1987-01-16 23:00:00,10.15625,,10.15625,,10.15625,,0.02313846153846154,0.0547
1987-01-19 23:00:00,10.125,,10.125,,10.125,,0.023209876543209874,0.0547
1987-01-20 23:00:00,10.40625,,10.40625,,10.40625,,0.02258258258258258,0.0545
1987-01-21 23:00:00,10.0,,10.0,,10.0,,0.0235,0.0546
1987-01-22 23:00:00,10.3125,,10.3125,,10.3125,,0.022787878787878788,0.0553
1987-01-23 23:00:00,10.40625,,10.40625,,10.40625,,0.02258258258258258,0.0555
1987-01-26 23:00:00,10.25,,10.25,,10.25,,0.022926829268292682,0.0564
1987-01-27 23:00:00,10.421875,,10.421875,,10.421875,,0.022548725637181407,0.0564
1987-01-28 23:00:00,10.59375,,10.59375,,10.59375,,0.022182890855457226,0.0562
1987-01-29 23:00:00,10.734375,,10.734375,,10.734375,,0.021892285298398834,0.056299999999999996
1987-01-30 23:00:00,10.875,,10.875,,10.875,,0.021609195402298848,0.0576
1987-02-02 23:00:00,11.0625,,11.0625,,11.0625,,0.021242937853107345,0.057699999999999994
1987-02-03 23:00:00,11.03125,,11.03125,,11.03125,,0.02130311614730878,0.0575
1987-02-04 23:00:00,11.0625,,11.0625,,11.0625,,0.021242937853107345,0.0579
1987-02-05 23:00:00,10.90625,,10.90625,,10.90625,,0.02154727793696275,0.0575
1987-02-06 23:00:00,10.96875,,10.96875,,10.96875,,0.021424501424501422,0.0582
1987-02-09 23:00:00,10.875,,10.875,,10.875,,0.021609195402298848,0.0588
1987-02-10 23:00:00,10.5,,10.5,,10.5,,0.02880952380952381,0.0599
1987-02-11 23:00:00,10.71875,,10.71875,,10.71875,,0.023090379008746355,0.0603
1987-02-12 23:00:00,10.5625,,10.5625,,10.5625,,0.023431952662721894,0.0588
1987-02-13 23:00:00,10.734375,,10.734375,,10.734375,,0.023056768558951966,0.0581
1987-02-17 23:00:00,10.6875,,10.6875,,10.6875,,0.023157894736842106,0.0588
1987-02-18 23:00:00,10.90625,,10.90625,,10.90625,,0.022693409742120342,0.0576
1987-02-19 23:00:00,10.90625,,10.90625,,10.90625,,0.022693409742120342,0.055999999999999994
1987-02-20 23:00:00,10.8125,,10.8125,,10.8125,,0.022890173410404623,0.0558
1987-02-23 23:00:00,10.640625,,10.640625,,10.640625,,0.02325991189427313,0.0559
1987-02-24 23:00:00,10.578125,,10.578125,,10.578125,,0.023397341211225997,0.0559
1987-02-25 23:00:00,10.5,,10.5,,10.5,,0.02357142857142857,0.055999999999999994
1987-02-26 23:00:00,10.578125,,10.578125,,10.578125,,0.023397341211225997,0.055999999999999994
1987-02-27 23:00:00,10.53125,,10.53125,,10.53125,,0.02350148367952522,0.055999999999999994
1987-03-02 23:00:00,10.59375,,10.59375,,10.59375,,0.02336283185840708,0.056299999999999996
1987-03-03 23:00:00,10.625,,10.625,,10.625,,0.023294117647058823,0.0571
1987-03-04 23:00:00,10.59375,,10.59375,,10.59375,,0.02336283185840708,0.056799999999999996
1987-03-05 23:00:00,10.5625,,10.5625,,10.5625,,0.023431952662721894,0.056900000000000006
1987-03-06 23:00:00,10.640625,,10.640625,,10.640625,,0.02325991189427313,0.0582
1987-03-09 23:00:00,10.875,,10.875,,10.875,,0.022758620689655173,0.0582
1987-03-10 23:00:00,10.90625,,10.90625,,10.90625,,0.022693409742120342,0.058600000000000006
1987-03-11 23:00:00,10.921875,,10.921875,,10.921875,,0.022660944206008584,0.058600000000000006
1987-03-12 23:00:00,10.984375,,10.984375,,10.984375,,0.022532005689900426,0.058499999999999996
1987-03-13 23:00:00,10.875,,10.875,,10.875,,0.022758620689655173,0.0579
1987-03-16 23:00:00,10.71875,,10.71875,,10.71875,,0.023090379008746355,0.0583
1987-03-17 23:00:00,11.15625,,11.15625,,11.15625,,0.022184873949579832,0.0574
1987-03-18 23:00:00,11.25,,11.25,,11.25,,0.022,0.056900000000000006
1987-03-19 23:00:00,11.46875,,11.46875,,11.46875,,0.021580381471389645,0.0567
1987-03-20 23:00:00,11.875,,11.875,,11.875,,0.020842105263157894,0.056900000000000006
1987-03-23 23:00:00,12.25,,12.25,,12.25,,0.02020408163265306,0.057999999999999996
1987-03-24 23:00:00,12.0,,12.0,,12.0,,0.020625,0.0579
1987-03-25 23:00:00,12.0625,,12.0625,,12.0625,,0.020518134715025907,0.0574
1987-03-26 23:00:00,12.09375,,12.09375,,12.09375,,0.020465116279069766,0.0574
1987-03-27 23:00:00,11.53125,,11.53125,,11.53125,,0.02146341463414634,0.0581
1987-03-30 23:00:00,11.09375,,11.09375,,11.09375,,0.022309859154929577,0.058499999999999996
1987-03-31 23:00:00,11.03125,,11.03125,,11.03125,,0.02243626062322946,0.0579
1987-04-01 23:00:00,11.3125,,11.3125,,11.3125,,0.021878453038674032,0.0571
1987-04-02 23:00:00,11.5,,11.5,,11.5,,0.021521739130434783,0.056799999999999996
1987-04-03 23:00:00,11.75,,11.75,,11.75,,0.02106382978723404,0.0567
1987-04-06 23:00:00,12.03125,,12.03125,,12.03125,,0.02057142857142857,0.0565
1987-04-07 23:00:00,11.84375,,11.84375,,11.84375,,0.020897097625329816,0.056799999999999996
1987-04-08 23:00:00,11.71875,,11.71875,,11.71875,,0.02112,0.0567
1987-04-09 23:00:00,11.28125,,11.28125,,11.28125,,0.021939058171745154,0.0593
1987-04-10 23:00:00,11.15625,,11.15625,,11.15625,,0.022184873949579832,0.0604
1987-04-13 23:00:00,10.5,,10.5,,10.5,,0.02357142857142857,0.0622
1987-04-14 23:00:00,10.21875,,10.21875,,10.21875,,0.02422018348623853,0.0611
1987-04-15 23:00:00,10.375,,10.375,,10.375,,0.023855421686746987,0.058600000000000006
1987-04-16 23:00:00,10.75,,10.75,,10.75,,0.023023255813953487,0.057300000000000004
1987-04-20 23:00:00,10.5,,10.5,,10.5,,0.02357142857142857,0.0574
1987-04-21 23:00:00,10.6875,,10.6875,,10.6875,,0.023157894736842106,0.0567
1987-04-22 23:00:00,10.25,,10.25,,10.25,,0.024146341463414635,0.0559
1987-04-23 23:00:00,10.0625,,10.0625,,10.0625,,0.024596273291925465,0.056600000000000004
1987-04-24 23:00:00,9.71875,,9.71875,,9.71875,,0.025466237942122185,0.0594
1987-04-27 23:00:00,9.875,,9.875,,9.875,,0.025063291139240506,0.059800000000000006
1987-04-28 23:00:00,9.875,,9.875,,9.875,,0.025063291139240506,0.0601
1987-04-29 23:00:00,10.09375,,10.09375,,10.09375,,0.024520123839009287,0.058899999999999994
1987-04-30 23:00:00,10.40625,,10.40625,,10.40625,,0.023783783783783784,0.057
1987-05-01 23:00:00,10.59375,,10.59375,,10.59375,,0.02336283185840708,0.057800000000000004
1987-05-04 23:00:00,10.40625,,10.40625,,10.40625,,0.023783783783783784,0.0587
1987-05-05 23:00:00,10.46875,,10.46875,,10.46875,,0.03008955223880597,0.0599
1987-05-06 23:00:00,10.6875,,10.6875,,10.6875,,0.023859649122807018,0.0567
1987-05-07 23:00:00,10.625,,10.625,,10.625,,0.024,0.057
1987-05-08 23:00:00,10.6875,,10.6875,,10.6875,,0.023859649122807018,0.0571
1987-05-11 23:00:00,10.65625,,10.65625,,10.65625,,0.023929618768328446,0.0584
1987-05-12 23:00:00,10.53125,,10.53125,,10.53125,,0.024213649851632046,0.057800000000000004
1987-05-13 23:00:00,10.4375,,10.4375,,10.4375,,0.024431137724550897,0.057
1987-05-14 23:00:00,10.3125,,10.3125,,10.3125,,0.024727272727272726,0.0591
1987-05-15 23:00:00,10.0,,10.0,,10.0,,0.025500000000000002,0.061500000000000006
1987-05-18 23:00:00,9.84375,,9.84375,,9.84375,,0.025904761904761906,0.060899999999999996
1987-05-19 23:00:00,9.46875,,9.46875,,9.46875,,0.02693069306930693,0.0596
1987-05-20 23:00:00,9.3125,,9.3125,,9.3125,,0.02738255033557047,0.0587
1987-05-21 23:00:00,9.1875,,9.1875,,9.1875,,0.027755102040816326,0.0571
1987-05-22 23:00:00,9.3125,,9.3125,,9.3125,,0.02738255033557047,0.0574
1987-05-26 23:00:00,9.71875,,9.71875,,9.71875,,0.026237942122186497,0.0583
1987-05-27 23:00:00,9.75,,9.75,,9.75,,0.026153846153846156,0.0594
1987-05-28 23:00:00,9.65625,,9.65625,,9.65625,,0.02640776699029126,0.0582
1987-05-29 23:00:00,9.71875,,9.71875,,9.71875,,0.026237942122186497,0.0587
1987-06-01 23:00:00,9.8125,,9.8125,,9.8125,,0.025987261146496816,0.0592
1987-06-02 23:00:00,9.96875,,9.96875,,9.96875,,0.025579937304075234,0.0594
1987-06-03 23:00:00,9.90625,,9.90625,,9.90625,,0.025741324921135646,0.0587
1987-06-04 23:00:00,10.1875,,10.1875,,10.1875,,0.02503067484662577,0.0584
1987-06-05 23:00:00,10.125,,10.125,,10.125,,0.025185185185185185,0.0587
1987-06-08 23:00:00,10.0625,,10.0625,,10.0625,,0.0253416149068323,0.058499999999999996
1987-06-09 23:00:00,10.125,,10.125,,10.125,,0.025185185185185185,0.056799999999999996
1987-06-10 23:00:00,10.21875,,10.21875,,10.21875,,0.024954128440366975,0.0565
1987-06-11 23:00:00,10.28125,,10.28125,,10.28125,,0.024802431610942248,0.0572
1987-06-12 23:00:00,10.3125,,10.3125,,10.3125,,0.024727272727272726,0.057300000000000004
1987-06-15 23:00:00,10.4375,,10.4375,,10.4375,,0.024431137724550897,0.058499999999999996
1987-06-16 23:00:00,10.96875,,10.96875,,10.96875,,0.023247863247863248,0.0581
1987-06-17 23:00:00,11.53125,,11.53125,,11.53125,,0.022113821138211382,0.0583
1987-06-18 23:00:00,12.0,,12.0,,12.0,,0.02125,0.0583
1987-06-19 23:00:00,11.875,,11.875,,11.875,,0.021473684210526315,0.0584
1987-06-22 23:00:00,12.40625,,12.40625,,12.40625,,0.020554156171284636,0.058600000000000006
1987-06-23 23:00:00,12.5,,12.5,,12.5,,0.0204,0.059000000000000004
1987-06-24 23:00:00,12.5,,12.5,,12.5,,0.0204,0.0602
1987-06-25 23:00:00,12.0625,,12.0625,,12.0625,,0.021139896373056997,0.0603
1987-06-26 23:00:00,12.125,,12.125,,12.125,,0.021030927835051547,0.059699999999999996
1987-06-29 23:00:00,12.0625,,12.0625,,12.0625,,0.021139896373056997,0.0588
1987-06-30 23:00:00,11.75,,11.75,,11.75,,0.02170212765957447,0.0591
1987-07-01 23:00:00,11.5,,11.5,,11.5,,0.022173913043478263,0.0582
1987-07-02 23:00:00,11.40625,,11.40625,,11.40625,,0.022356164383561646,0.0584
1987-07-06 23:00:00,11.5625,,11.5625,,11.5625,,0.022054054054054053,0.058499999999999996
1987-07-07 23:00:00,12.0625,,12.0625,,12.0625,,0.021139896373056997,0.057800000000000004
1987-07-08 23:00:00,12.34375,,12.34375,,12.34375,,0.020658227848101268,0.0574
1987-07-09 23:00:00,12.34375,,12.34375,,12.34375,,0.020658227848101268,0.057800000000000004
1987-07-10 23:00:00,12.34375,,12.34375,,12.34375,,0.020658227848101268,0.0576
1987-07-13 23:00:00,12.28125,,12.28125,,12.28125,,0.020763358778625954,0.057800000000000004
1987-07-14 23:00:00,12.125,,12.125,,12.125,,0.021030927835051547,0.0572
1987-07-15 23:00:00,12.0625,,12.0625,,12.0625,,0.021139896373056997,0.0575
1987-07-16 23:00:00,12.125,,12.125,,12.125,,0.021030927835051547,0.0575
1987-07-17 23:00:00,12.09375,,12.09375,,12.09375,,0.021085271317829456,0.057300000000000004
1987-07-20 23:00:00,11.9375,,11.9375,,11.9375,,0.02136125654450262,0.0572
1987-07-21 23:00:00,11.5625,,11.5625,,11.5625,,0.022054054054054053,0.0587
1987-07-22 23:00:00,12.09375,,12.09375,,12.09375,,0.021085271317829456,0.058499999999999996
1987-07-23 23:00:00,11.875,,11.875,,11.875,,0.021473684210526315,0.0587
1987-07-24 23:00:00,11.78125,,11.78125,,11.78125,,0.021644562334217507,0.0596
1987-07-27 23:00:00,11.8125,,11.8125,,11.8125,,0.02158730158730159,0.0603
1987-07-28 23:00:00,11.78125,,11.78125,,11.78125,,0.021644562334217507,0.060899999999999996
1987-07-29 23:00:00,11.84375,,11.84375,,11.84375,,0.021530343007915568,0.0611
1987-07-30 23:00:00,12.09375,,12.09375,,12.09375,,0.021085271317829456,0.06269999999999999
1987-07-31 23:00:00,12.40625,,12.40625,,12.40625,,0.020554156171284636,0.06269999999999999
1987-08-03 23:00:00,12.28125,,12.28125,,12.28125,,0.020763358778625954,0.0625
1987-08-04 23:00:00,12.03125,,12.03125,,12.03125,,0.026805194805194808,0.0604
1987-08-05 23:00:00,12.0625,,12.0625,,12.0625,,0.021761658031088083,0.0604
1987-08-06 23:00:00,12.21875,,12.21875,,12.21875,,0.021483375959079284,0.0593
1987-08-07 23:00:00,12.15625,,12.15625,,12.15625,,0.021593830334190232,0.0604
1987-08-10 23:00:00,12.28125,,12.28125,,12.28125,,0.021374045801526718,0.0611
1987-08-11 23:00:00,12.15625,,12.15625,,12.15625,,0.021593830334190232,0.0613
1987-08-12 23:00:00,12.25,,12.25,,12.25,,0.02142857142857143,0.061399999999999996
1987-08-13 23:00:00,12.4375,,12.4375,,12.4375,,0.021105527638190957,0.061500000000000006
1987-08-14 23:00:00,12.3125,,12.3125,,12.3125,,0.021319796954314723,0.061500000000000006
1987-08-17 23:00:00,12.21875,,12.21875,,12.21875,,0.021483375959079284,0.0617
1987-08-18 23:00:00,11.90625,,11.90625,,11.90625,,0.02204724409448819,0.0621
1987-08-19 23:00:00,11.96875,,11.96875,,11.96875,,0.02193211488250653,0.062400000000000004
1987-08-20 23:00:00,11.9375,,11.9375,,11.9375,,0.02198952879581152,0.06309999999999999
1987-08-21 23:00:00,12.09375,,12.09375,,12.09375,,0.021705426356589147,0.063
1987-08-24 23:00:00,11.9375,,11.9375,,11.9375,,0.02198952879581152,0.0638
1987-08-25 23:00:00,11.875,,11.875,,11.875,,0.02210526315789474,0.0638
1987-08-26 23:00:00,12.0,,12.0,,12.0,,0.021875000000000002,0.0646
1987-08-27 23:00:00,12.125,,12.125,,12.125,,0.021649484536082474,0.065
1987-08-28 23:00:00,11.8125,,11.8125,,11.8125,,0.022222222222222223,0.0652
1987-08-31 23:00:00,12.15625,,12.15625,,12.15625,,0.021593830334190232,0.0645
1987-09-01 23:00:00,12.34375,,12.34375,,12.34375,,0.021265822784810127,0.0632
1987-09-02 23:00:00,12.1875,,12.1875,,12.1875,,0.02153846153846154,0.0629
1987-09-03 23:00:00,11.71875,,11.71875,,11.71875,,0.0224,0.0639
1987-09-04 23:00:00,11.5,,11.5,,11.5,,0.02282608695652174,0.0659
1987-09-08 23:00:00,11.3125,,11.3125,,11.3125,,0.023204419889502764,0.0666
1987-09-09 23:00:00,11.0625,,11.0625,,11.0625,,0.023728813559322035,0.0665
1987-09-10 23:00:00,11.09375,,11.09375,,11.09375,,0.023661971830985916,0.0654
1987-09-11 23:00:00,11.3125,,11.3125,,11.3125,,0.023204419889502764,0.06559999999999999
1987-09-14 23:00:00,11.40625,,11.40625,,11.40625,,0.023013698630136987,0.06559999999999999
1987-09-15 23:00:00,11.1875,,11.1875,,11.1875,,0.02346368715083799,0.0655
1987-09-16 23:00:00,11.125,,11.125,,11.125,,0.02359550561797753,0.0655
1987-09-17 23:00:00,11.46875,,11.46875,,11.46875,,0.022888283378746595,0.0659
1987-09-18 23:00:00,11.53125,,11.53125,,11.53125,,0.022764227642276424,0.0663
1987-09-21 23:00:00,11.28125,,11.28125,,11.28125,,0.02326869806094183,0.0674
1987-09-22 23:00:00,11.40625,,11.40625,,11.40625,,0.023013698630136987,0.0673
1987-09-23 23:00:00,11.40625,,11.40625,,11.40625,,0.023013698630136987,0.06709999999999999
1987-09-24 23:00:00,11.375,,11.375,,11.375,,0.023076923076923078,0.0667
1987-09-25 23:00:00,11.375,,11.375,,11.375,,0.023076923076923078,0.0676
1987-09-28 23:00:00,11.4375,,11.4375,,11.4375,,0.02295081967213115,0.0681
1987-09-29 23:00:00,11.5,,11.5,,11.5,,0.02282608695652174,0.0692
1987-09-30 23:00:00,11.3125,,11.3125,,11.3125,,0.023204419889502764,0.0683
1987-10-01 23:00:00,11.65625,,11.65625,,11.65625,,0.0225201072386059,0.06860000000000001
1987-10-02 23:00:00,11.625,,11.625,,11.625,,0.022580645161290325,0.0689
1987-10-05 23:00:00,11.71875,,11.71875,,11.71875,,0.0224,0.0692
1987-10-06 23:00:00,11.5625,,11.5625,,11.5625,,0.022702702702702703,0.0677
1987-10-07 23:00:00,11.375,,11.375,,11.375,,0.023076923076923078,0.0678
1987-10-08 23:00:00,11.21875,,11.21875,,11.21875,,0.0233983286908078,0.0693
1987-10-09 23:00:00,11.0625,,11.0625,,11.0625,,0.023728813559322035,0.07
1987-10-12 23:00:00,10.9375,,10.9375,,10.9375,,0.024,0.07
1987-10-13 23:00:00,11.1875,,11.1875,,11.1875,,0.02346368715083799,0.0703
1987-10-14 23:00:00,10.9375,,10.9375,,10.9375,,0.024,0.0745
1987-10-15 23:00:00,10.5625,,10.5625,,10.5625,,0.024852071005917162,0.0733
1987-10-16 23:00:00,10.0,,10.0,,10.0,,0.026250000000000002,0.0719
1987-10-19 23:00:00,7.9375,,7.9375,,7.9375,,0.03307086614173228,0.0667
1987-10-20 23:00:00,7.75,,7.75,,7.75,,0.03387096774193549,0.0605
1987-10-21 23:00:00,8.875,,8.875,,8.875,,0.029577464788732397,0.057800000000000004
1987-10-22 23:00:00,8.25,,8.25,,8.25,,0.03181818181818182,0.0553
1987-10-23 23:00:00,8.0,,8.0,,8.0,,0.0328125,0.0547
1987-10-26 23:00:00,7.4375,,7.4375,,7.4375,,0.03529411764705882,0.054400000000000004
1987-10-27 23:00:00,7.375,,7.375,,7.375,,0.03559322033898305,0.053899999999999997
1987-10-28 23:00:00,7.03125,,7.03125,,7.03125,,0.037333333333333336,0.0525
1987-10-29 23:00:00,7.34375,,7.34375,,7.34375,,0.03574468085106383,0.0519
1987-10-30 23:00:00,7.65625,,7.65625,,7.65625,,0.03428571428571429,0.0545
